EXPLAIN
TAG	SQUARE_WAVE
TITLE	LABEL	Square Wave Voltammetry	Test Identifier
DATE	LABEL	8/25/2020	Date
TIME	LABEL	13:30:11	Time
NOTES	NOTES	1	Notes...
	
PSTAT	PSTAT	REF600-24079	Potentiostat
VINIT	QUANT	-3.50000E-001	Initial E (V)
VFINAL	QUANT	-1.50000E-001	Final E (V)
STEPSIZE	QUANT	2.00000E+000	Step Size (mV)
TIMERRES	QUANT	3.33340E-005	&Timer Resolution
FREQUENCY	QUANT	1.00000E+001	Frequency (Hz)
PULSESIZE	QUANT	2.50000E+001	Pulse Size E (mV)
PULSEON	QUANT	1.00000E-001	Pulse &Time (s)
NOISEREJECT	TOGGLE	F	Noise Rejection
AREA	QUANT	2.00000E-002	Sample Area (cm^2)
IMODE	SELECTOR	1	I/E Range Mode
IRANGE	QUANT	1.00000E-003	Max Current (mA)
EQDELAY	IQUANT	10	Equil. Time (s)
IRCOMP	SELECTOR	0	IRComp
PFCOR	QUANT	5.00000E+001	PF Corr. (ohm)
CYCLES	IQUANT	101	C&ycles (#)
ELECTRODETYPE	SELECTOR	0	Electrode Type
STRIPPING	TOGGLE	F	Used for Stripping
POLARITY	TOGGLE	F	Signal Polarity
LINEFREQ	IQUANT	60	Line Frequency (Hz)
INTPERIOD	QUANT	3.3334E-005	Integration Period (s)
SEQUENCER	TOGGLE	TRUE	Run as Sequence
PSTATMODEL	IQUANT	4	Pstat Model
PSTATSECTION	LABEL	REF600-24079	Pstat Section
PSTATSERIALNO	LABEL	24079	Pstat Serial Number
CTRLMODE	IQUANT	1	Control Mode
ELECTROMETER	IQUANT	0	RE=0 or CS=1
IESTAB	IQUANT	2	I/E Stability
CASPEED	IQUANT	6	Control Amp Speed
CONVENTION	IQUANT	1	Current Convention
ICHRANGE	IQUANT	2	Ich Range
ICHRANGEMODE	TOGGLE	F	Ich Auto Range
ICHOFFSETENABLE	TOGGLE	F	Ich Offset Enable
ICHOFFSET	QUANT	0	Ich Offset (V)
ICHFILTER	IQUANT	2	Ich Filter
VCHRANGE	IQUANT	2	Vch Range
VCHRANGEMODE	TOGGLE	F	Vch Auto Range
VCHOFFSETENABLE	TOGGLE	F	Vch Offset Enable
VCHOFFSET	QUANT	0	Vch Offset (V)
VCHFILTER	IQUANT	2	Vch Filter
ACHRANGE	IQUANT	2	Ach Range
ACHOFFSETENABLE	TOGGLE	F	Ach Offset Enable
ACHOFFSET	QUANT	0	Ach Offset (V)
ACHFILTER	IQUANT	1	Ach Filter
IERANGELOWERLIMIT	IQUANT	1	I/E Range Lower Limit
IERANGEMODE	TOGGLE	F	I/E AutoRange
IERANGE	IQUANT	6	I/E Range
POSFEEDENABLE	TOGGLE	F	Positive Feedback IR Comp
POSFEEDRESISTANCE	QUANT	0	Positive Feedback Resistance (ohm)
ACHSELECT	IQUANT	0	Ach Select
SENSECABLEID	IQUANT	13	Sense Cable ID
PWRCABLEID	IQUANT	13	Power Cable ID
DCCALDATE	LABEL	6/30/2020	DC Calibration Date
ACCALDATE	LABEL	6/30/2020	AC Calibration Date
THERMOSELECT	IQUANT	1	Thermo Select
FRAMEWORKVERSION	LABEL	7.8.2	Framework Version
INSTRUMENTVERSION	LABEL	4.40	Instrument Version
CURVE	TABLE	101
	Pt	T	Vfwd	Vrev	Vstep	Ifwd	Irev	Idif	Sig	Ach	IERange	Over	Temp
	#	s	V	V	V	A	A	A	V	V	#	bits	deg C
	0	0.1	-3.24829E-001	-3.74874E-001	-3.49851E-001	-1.13145E-008	-3.91774E-008	2.78629E-008	-3.75000E-001	4.47039E-004	6	..........a	-327.68
	1	0.2	-3.22831E-001	-3.72881E-001	-3.47856E-001	-9.49204E-010	-3.47612E-008	3.38120E-008	-3.73000E-001	4.28873E-004	6	..........a	-327.68
	2	0.3	-3.20881E-001	-3.70773E-001	-3.45827E-001	1.13706E-009	-3.30170E-008	3.41540E-008	-3.71000E-001	4.43206E-004	6	..........a	-327.68
	3	0.4	-3.18857E-001	-3.68864E-001	-3.43861E-001	2.53057E-009	-3.19751E-008	3.45057E-008	-3.69000E-001	4.14539E-004	6	..........a	-327.68
	4	0.5	-3.16773E-001	-3.66879E-001	-3.41826E-001	3.26400E-009	-3.10344E-008	3.42984E-008	-3.67000E-001	4.19706E-004	6	..........a	-327.68
	5	0.6	-3.14827E-001	-3.64842E-001	-3.39835E-001	3.93142E-009	-3.05946E-008	3.45261E-008	-3.65000E-001	4.20039E-004	6	..........a	-327.68
	6	0.7	-3.12872E-001	-3.62787E-001	-3.37830E-001	4.93454E-009	-2.99326E-008	3.48671E-008	-3.63000E-001	4.14373E-004	6	..........a	-327.68
	7	0.8	-3.10852E-001	-3.60838E-001	-3.35845E-001	5.57596E-009	-2.95122E-008	3.50881E-008	-3.61000E-001	4.08373E-004	6	..........a	-327.68
	8	0.9	-3.08816E-001	-3.58846E-001	-3.33831E-001	6.20637E-009	-2.92725E-008	3.54788E-008	-3.59000E-001	4.03873E-004	6	..........a	-327.68
	9	1	-3.06803E-001	-3.56818E-001	-3.31810E-001	7.00114E-009	-2.88131E-008	3.58142E-008	-3.57000E-001	4.10373E-004	6	..........a	-327.68
	10	1.1	-3.04843E-001	-3.54811E-001	-3.29827E-001	7.74557E-009	-2.86354E-008	3.63810E-008	-3.55000E-001	4.05706E-004	6	..........a	-327.68
	11	1.2	-3.02889E-001	-3.52866E-001	-3.27878E-001	8.54034E-009	-2.83540E-008	3.68944E-008	-3.53000E-001	4.25206E-004	6	..........a	-327.68
	12	1.3	-3.00861E-001	-3.50864E-001	-3.25863E-001	9.33744E-009	-2.81617E-008	3.74991E-008	-3.51000E-001	4.08873E-004	6	..........a	-327.68
	13	1.4	-2.98827E-001	-3.48879E-001	-3.23853E-001	1.03546E-008	-2.83370E-008	3.86916E-008	-3.49000E-001	4.02873E-004	6	..........a	-327.68
	14	1.5	-2.96877E-001	-3.46840E-001	-3.21859E-001	1.13167E-008	-2.83840E-008	3.97007E-008	-3.47000E-001	4.13206E-004	6	..........a	-327.68
	15	1.6	-2.94900E-001	-3.44903E-001	-3.19902E-001	1.23562E-008	-2.82653E-008	4.06215E-008	-3.45000E-001	4.08206E-004	6	..........a	-327.68
	16	1.7	-2.92739E-001	-3.42863E-001	-3.17801E-001	1.34653E-008	-2.84417E-008	4.19070E-008	-3.43000E-001	4.11539E-004	6	..........a	-327.68
	17	1.8	-2.90769E-001	-3.40850E-001	-3.15810E-001	1.47778E-008	-2.89464E-008	4.37242E-008	-3.41000E-001	4.15206E-004	6	..........a	-327.68
	18	1.9	-2.88878E-001	-3.38792E-001	-3.13835E-001	1.61476E-008	-2.90928E-008	4.52404E-008	-3.39000E-001	4.23373E-004	6	..........a	-327.68
	19	2	-2.86850E-001	-3.36848E-001	-3.11849E-001	1.75151E-008	-2.93818E-008	4.68970E-008	-3.37000E-001	4.14539E-004	6	..........a	-327.68
	20	2.1	-2.84804E-001	-3.34848E-001	-3.09826E-001	1.88530E-008	-2.98745E-008	4.87275E-008	-3.35000E-001	4.15539E-004	6	..........a	-327.68
	21	2.2	-2.82785E-001	-3.32816E-001	-3.07800E-001	2.04525E-008	-3.04906E-008	5.09432E-008	-3.33000E-001	4.16706E-004	6	..........a	-327.68
	22	2.3	-2.80869E-001	-3.30791E-001	-3.05830E-001	2.23991E-008	-3.12444E-008	5.36435E-008	-3.31000E-001	4.17206E-004	6	..........a	-327.68
	23	2.4	-2.78840E-001	-3.28859E-001	-3.03849E-001	2.42137E-008	-3.19575E-008	5.61711E-008	-3.29000E-001	4.15873E-004	6	..........a	-327.68
	24	2.5	-2.76842E-001	-3.26875E-001	-3.01858E-001	2.61089E-008	-3.28286E-008	5.89375E-008	-3.27000E-001	4.15873E-004	6	..........a	-327.68
	25	2.6	-2.74824E-001	-3.24852E-001	-2.99838E-001	2.82175E-008	-3.38574E-008	6.20749E-008	-3.25000E-001	4.12039E-004	6	..........a	-327.68
	26	2.7	-2.72865E-001	-3.22845E-001	-2.97855E-001	3.00231E-008	-3.50359E-008	6.50589E-008	-3.23000E-001	4.15539E-004	6	..........a	-327.68
	27	2.8	-2.70892E-001	-3.20876E-001	-2.95884E-001	3.20627E-008	-3.62844E-008	6.83470E-008	-3.21000E-001	4.22373E-004	6	..........a	-327.68
	28	2.9	-2.68874E-001	-3.18869E-001	-2.93872E-001	3.42166E-008	-3.77506E-008	7.19672E-008	-3.19000E-001	4.12539E-004	6	..........a	-327.68
	29	3	-2.66769E-001	-3.16726E-001	-2.91748E-001	3.61395E-008	-3.91151E-008	7.52546E-008	-3.17000E-001	4.25706E-004	6	..........a	-327.68
	30	3.1	-2.64877E-001	-3.14813E-001	-2.89845E-001	3.81771E-008	-4.07059E-008	7.88830E-008	-3.15000E-001	4.29039E-004	6	..........a	-327.68
	31	3.2	-2.62882E-001	-3.12871E-001	-2.87876E-001	4.02860E-008	-4.25505E-008	8.28365E-008	-3.13000E-001	4.31539E-004	6	..........a	-327.68
	32	3.3	-2.60760E-001	-3.10848E-001	-2.85804E-001	4.20283E-008	-4.43257E-008	8.63540E-008	-3.11000E-001	4.27539E-004	6	..........a	-327.68
	33	3.4	-2.58783E-001	-3.08838E-001	-2.83811E-001	4.38925E-008	-4.61303E-008	9.00228E-008	-3.09000E-001	4.28373E-004	6	..........a	-327.68
	34	3.5	-2.56825E-001	-3.06796E-001	-2.81810E-001	4.54807E-008	-4.80129E-008	9.34936E-008	-3.07000E-001	4.23706E-004	6	..........a	-327.68
	35	3.6	-2.54855E-001	-3.04879E-001	-2.79867E-001	4.68425E-008	-4.98564E-008	9.66990E-008	-3.05000E-001	4.31539E-004	6	..........a	-327.68
	36	3.7	-2.52827E-001	-3.02874E-001	-2.77850E-001	4.78793E-008	-5.15663E-008	9.94456E-008	-3.03000E-001	4.21706E-004	6	..........a	-327.68
	37	3.8	-2.50815E-001	-3.00878E-001	-2.75847E-001	4.90332E-008	-5.34242E-008	1.02457E-007	-3.01000E-001	4.25873E-004	6	..........a	-327.68
	38	3.9	-2.48858E-001	-2.98847E-001	-2.73852E-001	4.96579E-008	-5.52474E-008	1.04905E-007	-2.99000E-001	4.38539E-004	6	..........a	-327.68
	39	4	-2.46872E-001	-2.96886E-001	-2.71879E-001	5.02863E-008	-5.69683E-008	1.07255E-007	-2.97000E-001	4.32706E-004	6	..........a	-327.68
	40	4.1	-2.44873E-001	-2.94854E-001	-2.69863E-001	5.05417E-008	-5.83295E-008	1.08871E-007	-2.95000E-001	4.44039E-004	6	..........a	-327.68
	41	4.2	-2.42766E-001	-2.92755E-001	-2.67760E-001	5.04077E-008	-6.00781E-008	1.10486E-007	-2.93000E-001	4.37373E-004	6	..........a	-327.68
	42	4.3	-2.40858E-001	-2.90779E-001	-2.65818E-001	5.02273E-008	-6.12859E-008	1.11513E-007	-2.91000E-001	4.37039E-004	6	..........a	-327.68
	43	4.4	-2.38863E-001	-2.88891E-001	-2.63877E-001	4.98813E-008	-6.21397E-008	1.12021E-007	-2.89000E-001	4.38373E-004	6	..........a	-327.68
	44	4.5	-2.36841E-001	-2.86855E-001	-2.61848E-001	4.90995E-008	-6.33408E-008	1.12440E-007	-2.87000E-001	4.32706E-004	6	..........a	-327.68
	45	4.6	-2.34783E-001	-2.84810E-001	-2.59796E-001	4.83874E-008	-6.36595E-008	1.12047E-007	-2.85000E-001	4.36206E-004	6	..........a	-327.68
	46	4.7	-2.32825E-001	-2.82794E-001	-2.57809E-001	4.75100E-008	-6.38936E-008	1.11404E-007	-2.83000E-001	4.27539E-004	6	..........a	-327.68
	47	4.8	-2.30837E-001	-2.80898E-001	-2.55868E-001	4.62715E-008	-6.38565E-008	1.10128E-007	-2.81000E-001	4.29706E-004	6	..........a	-327.68
	48	4.9	-2.28796E-001	-2.78860E-001	-2.53828E-001	4.50890E-008	-6.35998E-008	1.08689E-007	-2.79000E-001	4.39873E-004	6	..........a	-327.68
	49	5	-2.26794E-001	-2.76867E-001	-2.51830E-001	4.36755E-008	-6.30318E-008	1.06707E-007	-2.77000E-001	4.42873E-004	6	..........a	-327.68
	50	5.1	-2.24848E-001	-2.74831E-001	-2.49839E-001	4.22316E-008	-6.22510E-008	1.04483E-007	-2.75000E-001	4.46039E-004	6	..........a	-327.68
	51	5.2	-2.22855E-001	-2.72862E-001	-2.47859E-001	4.07934E-008	-6.10812E-008	1.01875E-007	-2.73000E-001	4.43206E-004	6	..........a	-327.68
	52	5.3	-2.20858E-001	-2.70856E-001	-2.45857E-001	3.92199E-008	-5.99527E-008	9.91726E-008	-2.71000E-001	4.44373E-004	6	..........a	-327.68
	53	5.4	-2.18850E-001	-2.68863E-001	-2.43856E-001	3.76497E-008	-5.79074E-008	9.55572E-008	-2.69000E-001	4.38873E-004	6	..........a	-327.68
	54	5.5	-2.16885E-001	-2.66771E-001	-2.41828E-001	3.61032E-008	-5.64286E-008	9.25318E-008	-2.67000E-001	4.33039E-004	6	..........a	-327.68
	55	5.6	-2.14849E-001	-2.64870E-001	-2.39859E-001	3.45883E-008	-5.44267E-008	8.90150E-008	-2.65000E-001	4.30539E-004	6	..........a	-327.68
	56	5.7	-2.12806E-001	-2.62874E-001	-2.37840E-001	3.31578E-008	-5.22964E-008	8.54542E-008	-2.63000E-001	4.49039E-004	6	..........a	-327.68
	57	5.8	-2.10799E-001	-2.60814E-001	-2.35807E-001	3.17803E-008	-5.03348E-008	8.21151E-008	-2.61000E-001	4.47706E-004	6	..........a	-327.68
	58	5.9	-2.08839E-001	-2.58793E-001	-2.33816E-001	3.02734E-008	-4.80852E-008	7.83586E-008	-2.59000E-001	4.26039E-004	6	..........a	-327.68
	59	6	-2.06851E-001	-2.56842E-001	-2.31847E-001	2.90129E-008	-4.60409E-008	7.50539E-008	-2.57000E-001	4.31539E-004	6	..........a	-327.68
	60	6.1	-2.04803E-001	-2.54874E-001	-2.29838E-001	2.78568E-008	-4.35470E-008	7.14038E-008	-2.55000E-001	4.20373E-004	6	..........a	-327.68
	61	6.2	-2.02797E-001	-2.52826E-001	-2.27812E-001	2.63336E-008	-4.13497E-008	6.76833E-008	-2.53000E-001	4.22706E-004	6	..........a	-327.68
	62	6.3	-2.00851E-001	-2.50822E-001	-2.25836E-001	2.51548E-008	-3.92951E-008	6.44499E-008	-2.51000E-001	4.21039E-004	6	..........a	-327.68
	63	6.4	-1.98870E-001	-2.48866E-001	-2.23868E-001	2.41327E-008	-3.67461E-008	6.08787E-008	-2.49000E-001	4.16039E-004	6	..........a	-327.68
	64	6.5	-1.96849E-001	-2.46876E-001	-2.21862E-001	2.31409E-008	-3.48342E-008	5.79750E-008	-2.47000E-001	3.97706E-004	6	..........a	-327.68
	65	6.6	-1.94835E-001	-2.44871E-001	-2.19853E-001	2.22147E-008	-3.26656E-008	5.48803E-008	-2.45000E-001	4.12373E-004	6	..........a	-327.68
	66	6.7	-1.92880E-001	-2.42769E-001	-2.17824E-001	2.12209E-008	-3.07847E-008	5.20056E-008	-2.43000E-001	4.14539E-004	6	..........a	-327.68
	67	6.8	-1.90894E-001	-2.40864E-001	-2.15879E-001	2.05025E-008	-2.90968E-008	4.95993E-008	-2.41000E-001	4.20373E-004	6	..........a	-327.68
	68	6.9	-1.88758E-001	-2.38894E-001	-2.13826E-001	1.96854E-008	-2.74536E-008	4.71390E-008	-2.39000E-001	4.14039E-004	6	..........a	-327.68
	69	7	-1.86799E-001	-2.36857E-001	-2.11828E-001	1.91203E-008	-2.56680E-008	4.47884E-008	-2.37000E-001	4.28706E-004	6	..........a	-327.68
	70	7.1	-1.84876E-001	-2.34794E-001	-2.09835E-001	1.82936E-008	-2.43692E-008	4.26628E-008	-2.35000E-001	4.34873E-004	6	..........a	-327.68
	71	7.2	-1.82846E-001	-2.32844E-001	-2.07845E-001	1.77815E-008	-2.30027E-008	4.07842E-008	-2.33000E-001	4.37706E-004	6	..........a	-327.68
	72	7.3	-1.80795E-001	-2.30847E-001	-2.05821E-001	1.71401E-008	-2.20722E-008	3.92123E-008	-2.31000E-001	4.27706E-004	6	..........a	-327.68
	73	7.4	-1.78782E-001	-2.28817E-001	-2.03800E-001	1.67180E-008	-2.05647E-008	3.72827E-008	-2.29000E-001	4.23539E-004	6	..........a	-327.68
	74	7.5	-1.76823E-001	-2.26800E-001	-2.01811E-001	1.63907E-008	-1.96159E-008	3.60066E-008	-2.27000E-001	4.15206E-004	6	..........a	-327.68
	75	7.6	-1.74854E-001	-2.24864E-001	-1.99859E-001	1.59446E-008	-1.86311E-008	3.45757E-008	-2.25000E-001	4.10373E-004	6	..........a	-327.68
	76	7.7	-1.72828E-001	-2.22852E-001	-1.97840E-001	1.57062E-008	-1.78237E-008	3.35299E-008	-2.23000E-001	4.25873E-004	6	..........a	-327.68
	77	7.8	-1.70807E-001	-2.20848E-001	-1.95828E-001	1.51935E-008	-1.69192E-008	3.21128E-008	-2.21000E-001	4.21206E-004	6	..........a	-327.68
	78	7.9	-1.68848E-001	-2.18836E-001	-1.93842E-001	1.50788E-008	-1.61931E-008	3.12720E-008	-2.19000E-001	4.22873E-004	6	..........a	-327.68
	79	8	-1.66883E-001	-2.16891E-001	-1.91887E-001	1.47671E-008	-1.55787E-008	3.03459E-008	-2.17000E-001	4.21373E-004	6	..........a	-327.68
	80	8.1	-1.64694E-001	-2.14841E-001	-1.89767E-001	1.46948E-008	-1.50463E-008	2.97411E-008	-2.15000E-001	4.28039E-004	6	..........a	-327.68
	81	8.2	-1.62769E-001	-2.12774E-001	-1.87771E-001	1.44074E-008	-1.45713E-008	2.89787E-008	-2.13000E-001	4.34539E-004	6	..........a	-327.68
	82	8.3	-1.60887E-001	-2.10798E-001	-1.85842E-001	1.43281E-008	-1.41292E-008	2.84573E-008	-2.11000E-001	4.40039E-004	6	..........a	-327.68
	83	8.4	-1.58834E-001	-2.08825E-001	-1.83829E-001	1.41424E-008	-1.35131E-008	2.76555E-008	-2.09000E-001	4.26206E-004	6	..........a	-327.68
	84	8.5	-1.56745E-001	-2.06862E-001	-1.81803E-001	1.38367E-008	-1.31951E-008	2.70318E-008	-2.07000E-001	4.26873E-004	6	..........a	-327.68
	85	8.6	-1.54774E-001	-2.04776E-001	-1.79775E-001	1.38503E-008	-1.27004E-008	2.65507E-008	-2.05000E-001	4.29706E-004	6	..........a	-327.68
	86	8.7	-1.52848E-001	-2.02792E-001	-1.77820E-001	1.36403E-008	-1.24967E-008	2.61370E-008	-2.03000E-001	4.26539E-004	6	..........a	-327.68
	87	8.8	-1.50865E-001	-2.00862E-001	-1.75864E-001	1.35820E-008	-1.22180E-008	2.57999E-008	-2.01000E-001	4.45706E-004	6	..........a	-327.68
	88	8.9	-1.48788E-001	-1.98875E-001	-1.73831E-001	1.34156E-008	-1.17582E-008	2.51739E-008	-1.99000E-001	4.23539E-004	6	..........a	-327.68
	89	9	-1.46815E-001	-1.96834E-001	-1.71824E-001	1.34096E-008	-1.16726E-008	2.50822E-008	-1.97000E-001	4.25206E-004	6	..........a	-327.68
	90	9.1	-1.44854E-001	-1.94833E-001	-1.69843E-001	1.33856E-008	-1.13269E-008	2.47125E-008	-1.95000E-001	4.29373E-004	6	..........a	-327.68
	91	9.2	-1.42886E-001	-1.92874E-001	-1.67880E-001	1.33780E-008	-1.10542E-008	2.44321E-008	-1.93000E-001	4.18873E-004	6	..........a	-327.68
	92	9.3	-1.40859E-001	-1.90837E-001	-1.65848E-001	1.33403E-008	-1.08648E-008	2.42051E-008	-1.91000E-001	4.29206E-004	6	..........a	-327.68
	93	9.4	-1.38734E-001	-1.88725E-001	-1.63730E-001	1.33279E-008	-1.07888E-008	2.41167E-008	-1.89000E-001	4.16206E-004	6	..........a	-327.68
	94	9.5	-1.36843E-001	-1.86786E-001	-1.61815E-001	1.32519E-008	-1.05651E-008	2.38170E-008	-1.87000E-001	4.40373E-004	6	..........a	-327.68
	95	9.6	-1.34907E-001	-1.84859E-001	-1.59883E-001	1.33803E-008	-1.03504E-008	2.37307E-008	-1.85000E-001	4.28873E-004	6	..........a	-327.68
	96	9.7	-1.32718E-001	-1.82841E-001	-1.57780E-001	1.32176E-008	-1.01534E-008	2.33710E-008	-1.83000E-001	4.18873E-004	6	..........a	-327.68
	97	9.8	-1.30768E-001	-1.80786E-001	-1.55777E-001	1.32739E-008	-1.00074E-008	2.32813E-008	-1.81000E-001	4.21206E-004	6	..........a	-327.68
	98	9.9	-1.28803E-001	-1.78784E-001	-1.53793E-001	1.33363E-008	-9.75866E-009	2.30949E-008	-1.79000E-001	4.35206E-004	6	..........a	-327.68
	99	10	-1.26887E-001	-1.76830E-001	-1.51859E-001	1.33830E-008	-9.84867E-009	2.32316E-008	-1.77000E-001	4.36706E-004	6	..........a	-327.68
	100	10.1	-1.24769E-001	-1.74860E-001	-1.49814E-001	1.32336E-008	-9.51796E-009	2.27516E-008	-1.75000E-001	4.40539E-004	6	..........a	-327.68
