EXPLAIN
TAG	SQUARE_WAVE
TITLE	LABEL	Square Wave Voltammetry	Test Identifier
DATE	LABEL	8/31/2020	Date
TIME	LABEL	12:48:13	Time
NOTES	NOTES	1	Notes...
	
PSTAT	PSTAT	REF600-24079	Potentiostat
VINIT	QUANT	-3.50000E-001	Initial E (V)
VFINAL	QUANT	-1.50000E-001	Final E (V)
STEPSIZE	QUANT	2.00000E+000	Step Size (mV)
TIMERRES	QUANT	3.33340E-005	&Timer Resolution
FREQUENCY	QUANT	1.00000E+001	Frequency (Hz)
PULSESIZE	QUANT	2.50000E+001	Pulse Size E (mV)
PULSEON	QUANT	1.00000E-001	Pulse &Time (s)
NOISEREJECT	TOGGLE	F	Noise Rejection
AREA	QUANT	2.00000E-002	Sample Area (cm^2)
IMODE	SELECTOR	1	I/E Range Mode
IRANGE	QUANT	1.00000E-003	Max Current (mA)
EQDELAY	IQUANT	10	Equil. Time (s)
IRCOMP	SELECTOR	0	IRComp
PFCOR	QUANT	5.00000E+001	PF Corr. (ohm)
CYCLES	IQUANT	101	C&ycles (#)
ELECTRODETYPE	SELECTOR	0	Electrode Type
STRIPPING	TOGGLE	F	Used for Stripping
POLARITY	TOGGLE	F	Signal Polarity
LINEFREQ	IQUANT	60	Line Frequency (Hz)
INTPERIOD	QUANT	3.3334E-005	Integration Period (s)
SEQUENCER	TOGGLE	TRUE	Run as Sequence
PSTATMODEL	IQUANT	4	Pstat Model
PSTATSECTION	LABEL	REF600-24079	Pstat Section
PSTATSERIALNO	LABEL	24079	Pstat Serial Number
CTRLMODE	IQUANT	1	Control Mode
ELECTROMETER	IQUANT	0	RE=0 or CS=1
IESTAB	IQUANT	2	I/E Stability
CASPEED	IQUANT	6	Control Amp Speed
CONVENTION	IQUANT	1	Current Convention
ICHRANGE	IQUANT	2	Ich Range
ICHRANGEMODE	TOGGLE	F	Ich Auto Range
ICHOFFSETENABLE	TOGGLE	F	Ich Offset Enable
ICHOFFSET	QUANT	0	Ich Offset (V)
ICHFILTER	IQUANT	2	Ich Filter
VCHRANGE	IQUANT	2	Vch Range
VCHRANGEMODE	TOGGLE	F	Vch Auto Range
VCHOFFSETENABLE	TOGGLE	F	Vch Offset Enable
VCHOFFSET	QUANT	0	Vch Offset (V)
VCHFILTER	IQUANT	2	Vch Filter
ACHRANGE	IQUANT	2	Ach Range
ACHOFFSETENABLE	TOGGLE	F	Ach Offset Enable
ACHOFFSET	QUANT	0	Ach Offset (V)
ACHFILTER	IQUANT	1	Ach Filter
IERANGELOWERLIMIT	IQUANT	1	I/E Range Lower Limit
IERANGEMODE	TOGGLE	F	I/E AutoRange
IERANGE	IQUANT	6	I/E Range
POSFEEDENABLE	TOGGLE	F	Positive Feedback IR Comp
POSFEEDRESISTANCE	QUANT	0	Positive Feedback Resistance (ohm)
ACHSELECT	IQUANT	0	Ach Select
SENSECABLEID	IQUANT	13	Sense Cable ID
PWRCABLEID	IQUANT	13	Power Cable ID
DCCALDATE	LABEL	6/30/2020	DC Calibration Date
ACCALDATE	LABEL	6/30/2020	AC Calibration Date
THERMOSELECT	IQUANT	1	Thermo Select
FRAMEWORKVERSION	LABEL	7.8.2	Framework Version
INSTRUMENTVERSION	LABEL	4.40	Instrument Version
CURVE	TABLE	101
	Pt	T	Vfwd	Vrev	Vstep	Ifwd	Irev	Idif	Sig	Ach	IERange	Over	Temp
	#	s	V	V	V	A	A	A	V	V	#	bits	deg C
	0	0.1	-3.24837E-001	-3.74868E-001	-3.49852E-001	-1.04187E-008	-4.33759E-008	3.29572E-008	-3.75000E-001	3.36206E-004	6	..........a	-327.68
	1	0.2	-3.22843E-001	-3.72842E-001	-3.47843E-001	3.26933E-009	-3.81686E-008	4.14379E-008	-3.73000E-001	3.29539E-004	6	..........a	-327.68
	2	0.3	-3.20869E-001	-3.70781E-001	-3.45825E-001	5.98201E-009	-3.57850E-008	4.17670E-008	-3.71000E-001	3.28873E-004	6	..........a	-327.68
	3	0.4	-3.18816E-001	-3.68870E-001	-3.43843E-001	7.79991E-009	-3.50222E-008	4.28221E-008	-3.69000E-001	3.26039E-004	6	..........a	-327.68
	4	0.5	-3.16702E-001	-3.66892E-001	-3.41797E-001	8.80070E-009	-3.40127E-008	4.28135E-008	-3.67000E-001	3.14206E-004	6	..........a	-327.68
	5	0.6	-3.14848E-001	-3.64823E-001	-3.39836E-001	9.72115E-009	-3.32530E-008	4.29741E-008	-3.65000E-001	3.07873E-004	6	..........a	-327.68
	6	0.7	-3.12850E-001	-3.62811E-001	-3.37830E-001	1.08140E-008	-3.29263E-008	4.37402E-008	-3.63000E-001	3.16373E-004	6	..........a	-327.68
	7	0.8	-3.10864E-001	-3.60846E-001	-3.35855E-001	1.18531E-008	-3.23885E-008	4.42416E-008	-3.61000E-001	3.22539E-004	6	..........a	-327.68
	8	0.9	-3.08764E-001	-3.58865E-001	-3.33815E-001	1.26155E-008	-3.22939E-008	4.49094E-008	-3.59000E-001	3.26206E-004	6	..........a	-327.68
	9	1	-3.06805E-001	-3.56811E-001	-3.31808E-001	1.36000E-008	-3.20862E-008	4.56861E-008	-3.57000E-001	3.20873E-004	6	..........a	-327.68
	10	1.1	-3.04833E-001	-3.54823E-001	-3.29828E-001	1.46541E-008	-3.19031E-008	4.65573E-008	-3.55000E-001	3.10873E-004	6	..........a	-327.68
	11	1.2	-3.02868E-001	-3.52872E-001	-3.27870E-001	1.55409E-008	-3.17261E-008	4.72670E-008	-3.53000E-001	3.24706E-004	6	..........a	-327.68
	12	1.3	-3.00840E-001	-3.50848E-001	-3.25844E-001	1.66847E-008	-3.16148E-008	4.82995E-008	-3.51000E-001	3.25039E-004	6	..........a	-327.68
	13	1.4	-2.98840E-001	-3.48849E-001	-3.23844E-001	1.78462E-008	-3.18748E-008	4.97210E-008	-3.49000E-001	3.37706E-004	6	..........a	-327.68
	14	1.5	-2.96866E-001	-3.46843E-001	-3.21854E-001	1.92177E-008	-3.20762E-008	5.12939E-008	-3.47000E-001	3.36873E-004	6	..........a	-327.68
	15	1.6	-2.94877E-001	-3.44852E-001	-3.19864E-001	2.05139E-008	-3.20605E-008	5.25744E-008	-3.45000E-001	3.37039E-004	6	..........a	-327.68
	16	1.7	-2.92865E-001	-3.42893E-001	-3.17879E-001	2.19854E-008	-3.27873E-008	5.47726E-008	-3.43000E-001	3.34706E-004	6	..........a	-327.68
	17	1.8	-2.90803E-001	-3.40818E-001	-3.15810E-001	2.37666E-008	-3.32603E-008	5.70269E-008	-3.41000E-001	3.43706E-004	6	..........a	-327.68
	18	1.9	-2.88889E-001	-3.38825E-001	-3.13857E-001	2.53385E-008	-3.39814E-008	5.93199E-008	-3.39000E-001	3.30873E-004	6	..........a	-327.68
	19	2	-2.86840E-001	-3.36847E-001	-3.11843E-001	2.72611E-008	-3.47355E-008	6.19966E-008	-3.37000E-001	3.40873E-004	6	..........a	-327.68
	20	2.1	-2.84779E-001	-3.34852E-001	-3.09816E-001	2.92193E-008	-3.55979E-008	6.48172E-008	-3.35000E-001	3.35206E-004	6	..........a	-327.68
	21	2.2	-2.82808E-001	-3.32785E-001	-3.07796E-001	3.12516E-008	-3.64914E-008	6.77430E-008	-3.33000E-001	3.47539E-004	6	..........a	-327.68
	22	2.3	-2.80863E-001	-3.30800E-001	-3.05831E-001	3.37022E-008	-3.77639E-008	7.14661E-008	-3.31000E-001	3.46706E-004	6	..........a	-327.68
	23	2.4	-2.78849E-001	-3.28857E-001	-3.03853E-001	3.59882E-008	-3.91887E-008	7.51769E-008	-3.29000E-001	3.53206E-004	6	..........a	-327.68
	24	2.5	-2.76801E-001	-3.26862E-001	-3.01832E-001	3.84115E-008	-4.06999E-008	7.91114E-008	-3.27000E-001	3.43873E-004	6	..........a	-327.68
	25	2.6	-2.74822E-001	-3.24837E-001	-2.99829E-001	4.09708E-008	-4.23165E-008	8.32873E-008	-3.25000E-001	3.59206E-004	6	..........a	-327.68
	26	2.7	-2.72850E-001	-3.22840E-001	-2.97845E-001	4.36025E-008	-4.41604E-008	8.77628E-008	-3.23000E-001	3.55206E-004	6	..........a	-327.68
	27	2.8	-2.70860E-001	-3.20859E-001	-2.95859E-001	4.60031E-008	-4.62270E-008	9.22301E-008	-3.21000E-001	3.50373E-004	6	..........a	-327.68
	28	2.9	-2.68852E-001	-3.18838E-001	-2.93845E-001	4.87358E-008	-4.82399E-008	9.69757E-008	-3.19000E-001	3.42373E-004	6	..........a	-327.68
	29	3	-2.66875E-001	-3.16780E-001	-2.91827E-001	5.13731E-008	-5.07319E-008	1.02105E-007	-3.17000E-001	3.30539E-004	6	..........a	-327.68
	30	3.1	-2.64859E-001	-3.14862E-001	-2.89860E-001	5.40178E-008	-5.30125E-008	1.07030E-007	-3.15000E-001	3.45873E-004	6	..........a	-327.68
	31	3.2	-2.62862E-001	-3.12857E-001	-2.87860E-001	5.64864E-008	-5.54308E-008	1.11917E-007	-3.13000E-001	3.54373E-004	6	..........a	-327.68
	32	3.3	-2.60729E-001	-3.10850E-001	-2.85789E-001	5.85030E-008	-5.82138E-008	1.16717E-007	-3.11000E-001	3.43706E-004	6	..........a	-327.68
	33	3.4	-2.58791E-001	-3.08812E-001	-2.83801E-001	6.05046E-008	-6.10525E-008	1.21557E-007	-3.09000E-001	3.37873E-004	6	..........a	-327.68
	34	3.5	-2.56817E-001	-3.06835E-001	-2.81826E-001	6.25279E-008	-6.37199E-008	1.26248E-007	-3.07000E-001	3.44706E-004	6	..........a	-327.68
	35	3.6	-2.54867E-001	-3.04866E-001	-2.79866E-001	6.39824E-008	-6.66429E-008	1.30625E-007	-3.05000E-001	3.51373E-004	6	..........a	-327.68
	36	3.7	-2.52796E-001	-3.02873E-001	-2.77834E-001	6.52582E-008	-6.93812E-008	1.34639E-007	-3.03000E-001	3.32373E-004	6	..........a	-327.68
	37	3.8	-2.50811E-001	-3.00866E-001	-2.75839E-001	6.62413E-008	-7.19902E-008	1.38232E-007	-3.01000E-001	3.53706E-004	6	..........a	-327.68
	38	3.9	-2.48851E-001	-2.98861E-001	-2.73856E-001	6.69701E-008	-7.47329E-008	1.41703E-007	-2.99000E-001	3.34206E-004	6	..........a	-327.68
	39	4	-2.46847E-001	-2.96865E-001	-2.71856E-001	6.72721E-008	-7.70572E-008	1.44329E-007	-2.97000E-001	3.34039E-004	6	..........a	-327.68
	40	4.1	-2.44835E-001	-2.94860E-001	-2.69847E-001	6.75385E-008	-7.90761E-008	1.46615E-007	-2.95000E-001	3.40039E-004	6	..........a	-327.68
	41	4.2	-2.42759E-001	-2.92889E-001	-2.67824E-001	6.71541E-008	-8.07740E-008	1.47928E-007	-2.93000E-001	3.19039E-004	6	..........a	-327.68
	42	4.3	-2.40846E-001	-2.90820E-001	-2.65833E-001	6.65894E-008	-8.25076E-008	1.49097E-007	-2.91000E-001	3.32206E-004	6	..........a	-327.68
	43	4.4	-2.38866E-001	-2.88895E-001	-2.63881E-001	6.56983E-008	-8.35157E-008	1.49214E-007	-2.89000E-001	3.50873E-004	6	..........a	-327.68
	44	4.5	-2.36780E-001	-2.86870E-001	-2.61825E-001	6.47658E-008	-8.45195E-008	1.49285E-007	-2.87000E-001	3.32873E-004	6	..........a	-327.68
	45	4.6	-2.34788E-001	-2.84807E-001	-2.59798E-001	6.35010E-008	-8.51192E-008	1.48620E-007	-2.85000E-001	3.32706E-004	6	..........a	-327.68
	46	4.7	-2.32817E-001	-2.82816E-001	-2.57816E-001	6.21308E-008	-8.48775E-008	1.47008E-007	-2.83000E-001	3.33373E-004	6	..........a	-327.68
	47	4.8	-2.30842E-001	-2.80885E-001	-2.55864E-001	6.04713E-008	-8.48099E-008	1.45281E-007	-2.81000E-001	3.39373E-004	6	..........a	-327.68
	48	4.9	-2.28741E-001	-2.78873E-001	-2.53807E-001	5.89437E-008	-8.40384E-008	1.42982E-007	-2.79000E-001	3.36706E-004	6	..........a	-327.68
	49	5	-2.26801E-001	-2.76853E-001	-2.51827E-001	5.71519E-008	-8.28453E-008	1.39997E-007	-2.77000E-001	3.37373E-004	6	..........a	-327.68
	50	5.1	-2.24842E-001	-2.74841E-001	-2.49842E-001	5.51199E-008	-8.13461E-008	1.36466E-007	-2.75000E-001	3.39873E-004	6	..........a	-327.68
	51	5.2	-2.22845E-001	-2.72853E-001	-2.47849E-001	5.31573E-008	-7.95672E-008	1.32725E-007	-2.73000E-001	3.42039E-004	6	..........a	-327.68
	52	5.3	-2.20824E-001	-2.70849E-001	-2.45837E-001	5.10601E-008	-7.74826E-008	1.28543E-007	-2.71000E-001	3.43539E-004	6	..........a	-327.68
	53	5.4	-2.18825E-001	-2.68851E-001	-2.43838E-001	4.93389E-008	-7.50073E-008	1.24346E-007	-2.69000E-001	3.43373E-004	6	..........a	-327.68
	54	5.5	-2.16853E-001	-2.66837E-001	-2.41845E-001	4.73163E-008	-7.24513E-008	1.19768E-007	-2.67000E-001	3.48373E-004	6	..........a	-327.68
	55	5.6	-2.14872E-001	-2.64888E-001	-2.39880E-001	4.54097E-008	-6.95253E-008	1.14935E-007	-2.65000E-001	3.52706E-004	6	..........a	-327.68
	56	5.7	-2.12777E-001	-2.62873E-001	-2.37825E-001	4.34768E-008	-6.66656E-008	1.10142E-007	-2.63000E-001	3.49539E-004	6	..........a	-327.68
	57	5.8	-2.10833E-001	-2.60780E-001	-2.35807E-001	4.17859E-008	-6.36205E-008	1.05406E-007	-2.61000E-001	3.54206E-004	6	..........a	-327.68
	58	5.9	-2.08842E-001	-2.58824E-001	-2.33833E-001	3.99783E-008	-6.05705E-008	1.00549E-007	-2.59000E-001	3.48039E-004	6	..........a	-327.68
	59	6	-2.06860E-001	-2.56861E-001	-2.31860E-001	3.83775E-008	-5.73330E-008	9.57105E-008	-2.57000E-001	3.49539E-004	6	..........a	-327.68
	60	6.1	-2.04768E-001	-2.54874E-001	-2.29821E-001	3.66979E-008	-5.42013E-008	9.08992E-008	-2.55000E-001	3.46706E-004	6	..........a	-327.68
	61	6.2	-2.02820E-001	-2.52842E-001	-2.27831E-001	3.52341E-008	-5.11679E-008	8.64020E-008	-2.53000E-001	3.40206E-004	6	..........a	-327.68
	62	6.3	-2.00845E-001	-2.50848E-001	-2.25846E-001	3.40596E-008	-4.82582E-008	8.23178E-008	-2.51000E-001	3.50873E-004	6	..........a	-327.68
	63	6.4	-1.98862E-001	-2.48866E-001	-2.23864E-001	3.26551E-008	-4.54245E-008	7.80796E-008	-2.49000E-001	3.45039E-004	6	..........a	-327.68
	64	6.5	-1.96833E-001	-2.46854E-001	-2.21843E-001	3.16853E-008	-4.27459E-008	7.44311E-008	-2.47000E-001	3.49873E-004	6	..........a	-327.68
	65	6.6	-1.94828E-001	-2.44855E-001	-2.19842E-001	3.04011E-008	-4.00442E-008	7.04453E-008	-2.45000E-001	3.24873E-004	6	..........a	-327.68
	66	6.7	-1.92856E-001	-2.42759E-001	-2.17807E-001	2.94243E-008	-3.76112E-008	6.70355E-008	-2.43000E-001	3.42706E-004	6	..........a	-327.68
	67	6.8	-1.90846E-001	-2.40873E-001	-2.15859E-001	2.86389E-008	-3.53359E-008	6.39748E-008	-2.41000E-001	3.28039E-004	6	..........a	-327.68
	68	6.9	-1.88748E-001	-2.38885E-001	-2.13816E-001	2.77288E-008	-3.32887E-008	6.10174E-008	-2.39000E-001	3.36873E-004	6	..........a	-327.68
	69	7	-1.86817E-001	-2.36836E-001	-2.11826E-001	2.67933E-008	-3.12451E-008	5.80384E-008	-2.37000E-001	3.41373E-004	6	..........a	-327.68
	70	7.1	-1.84862E-001	-2.34826E-001	-2.09844E-001	2.61472E-008	-2.95175E-008	5.56647E-008	-2.35000E-001	3.37039E-004	6	..........a	-327.68
	71	7.2	-1.82841E-001	-2.32839E-001	-2.07840E-001	2.57525E-008	-2.80503E-008	5.38028E-008	-2.33000E-001	3.26539E-004	6	..........a	-327.68
	72	7.3	-1.80780E-001	-2.30857E-001	-2.05819E-001	2.49588E-008	-2.63764E-008	5.13352E-008	-2.31000E-001	3.38206E-004	6	..........a	-327.68
	73	7.4	-1.78811E-001	-2.28786E-001	-2.03799E-001	2.45607E-008	-2.50279E-008	4.95886E-008	-2.29000E-001	3.37373E-004	6	..........a	-327.68
	74	7.5	-1.76838E-001	-2.26822E-001	-2.01830E-001	2.39570E-008	-2.39381E-008	4.78951E-008	-2.27000E-001	3.37873E-004	6	..........a	-327.68
	75	7.6	-1.74854E-001	-2.24866E-001	-1.99860E-001	2.36673E-008	-2.29800E-008	4.66473E-008	-2.25000E-001	3.33539E-004	6	..........a	-327.68
	76	7.7	-1.72819E-001	-2.22856E-001	-1.97837E-001	2.33466E-008	-2.17649E-008	4.51114E-008	-2.23000E-001	3.24873E-004	6	..........a	-327.68
	77	7.8	-1.70827E-001	-2.20846E-001	-1.95836E-001	2.29302E-008	-2.09081E-008	4.38382E-008	-2.21000E-001	3.31373E-004	6	..........a	-327.68
	78	7.9	-1.68850E-001	-2.18844E-001	-1.93847E-001	2.26308E-008	-2.01623E-008	4.27931E-008	-2.19000E-001	3.44206E-004	6	..........a	-327.68
	79	8	-1.66856E-001	-2.16879E-001	-1.91867E-001	2.23851E-008	-1.93969E-008	4.17820E-008	-2.17000E-001	3.24373E-004	6	..........a	-327.68
	80	8.1	-1.64851E-001	-2.14881E-001	-1.89866E-001	2.22627E-008	-1.86101E-008	4.08729E-008	-2.15000E-001	3.33539E-004	6	..........a	-327.68
	81	8.2	-1.62800E-001	-2.12835E-001	-1.87818E-001	2.20264E-008	-1.82287E-008	4.02551E-008	-2.13000E-001	3.24206E-004	6	..........a	-327.68
	82	8.3	-1.60875E-001	-2.10836E-001	-1.85856E-001	2.18344E-008	-1.76670E-008	3.95014E-008	-2.11000E-001	3.33873E-004	6	..........a	-327.68
	83	8.4	-1.58855E-001	-2.08847E-001	-1.83851E-001	2.16147E-008	-1.70106E-008	3.86252E-008	-2.09000E-001	3.31373E-004	6	..........a	-327.68
	84	8.5	-1.56791E-001	-2.06857E-001	-1.81824E-001	2.16193E-008	-1.66925E-008	3.83119E-008	-2.07000E-001	3.33539E-004	6	..........a	-327.68
	85	8.6	-1.54803E-001	-2.04786E-001	-1.79794E-001	2.15517E-008	-1.63062E-008	3.78578E-008	-2.05000E-001	3.36539E-004	6	..........a	-327.68
	86	8.7	-1.52846E-001	-2.02818E-001	-1.77832E-001	2.14733E-008	-1.56951E-008	3.71684E-008	-2.03000E-001	3.27373E-004	6	..........a	-327.68
	87	8.8	-1.50855E-001	-2.00858E-001	-1.75856E-001	2.13430E-008	-1.55261E-008	3.68690E-008	-2.01000E-001	3.28039E-004	6	..........a	-327.68
	88	8.9	-1.48818E-001	-1.98861E-001	-1.73840E-001	2.13913E-008	-1.52677E-008	3.66590E-008	-1.99000E-001	3.35206E-004	6	..........a	-327.68
	89	9	-1.46820E-001	-1.96831E-001	-1.71825E-001	2.13936E-008	-1.52710E-008	3.66647E-008	-1.97000E-001	3.35039E-004	6	..........a	-327.68
	90	9.1	-1.44846E-001	-1.94837E-001	-1.69841E-001	2.13580E-008	-1.48743E-008	3.62323E-008	-1.95000E-001	3.26039E-004	6	..........a	-327.68
	91	9.2	-1.42861E-001	-1.92853E-001	-1.67857E-001	2.14280E-008	-1.46109E-008	3.60389E-008	-1.93000E-001	3.20539E-004	6	..........a	-327.68
	92	9.3	-1.40844E-001	-1.90845E-001	-1.65845E-001	2.14060E-008	-1.43459E-008	3.57519E-008	-1.91000E-001	3.40373E-004	6	..........a	-327.68
	93	9.4	-1.38891E-001	-1.88640E-001	-1.63766E-001	2.13766E-008	-1.41009E-008	3.54775E-008	-1.89000E-001	3.28206E-004	6	..........a	-327.68
	94	9.5	-1.36855E-001	-1.86818E-001	-1.61836E-001	2.12096E-008	-1.39069E-008	3.51165E-008	-1.87000E-001	3.30539E-004	6	..........a	-327.68
	95	9.6	-1.34854E-001	-1.84866E-001	-1.59860E-001	2.12300E-008	-1.37762E-008	3.50061E-008	-1.85000E-001	3.23373E-004	6	..........a	-327.68
	96	9.7	-1.32754E-001	-1.82858E-001	-1.57806E-001	2.12960E-008	-1.35558E-008	3.48518E-008	-1.83000E-001	3.28873E-004	6	..........a	-327.68
	97	9.8	-1.30798E-001	-1.80704E-001	-1.55751E-001	2.15280E-008	-1.34325E-008	3.49604E-008	-1.81000E-001	3.35873E-004	6	..........a	-327.68
	98	9.9	-1.28822E-001	-1.78813E-001	-1.53818E-001	2.14616E-008	-1.32461E-008	3.47077E-008	-1.79000E-001	3.26206E-004	6	..........a	-327.68
	99	10	-1.26868E-001	-1.76842E-001	-1.51855E-001	2.14290E-008	-1.32818E-008	3.47107E-008	-1.77000E-001	3.47873E-004	6	..........a	-327.68
	100	10.1	-1.24783E-001	-1.74848E-001	-1.49816E-001	2.15523E-008	-1.31948E-008	3.47471E-008	-1.75000E-001	3.34706E-004	6	..........a	-327.68
