EXPLAIN
TAG	SQUARE_WAVE
TITLE	LABEL	Square Wave Voltammetry	Test Identifier
DATE	LABEL	8/31/2020	Date
TIME	LABEL	12:51:44	Time
NOTES	NOTES	1	Notes...
	
PSTAT	PSTAT	REF600-24079	Potentiostat
VINIT	QUANT	-3.50000E-001	Initial E (V)
VFINAL	QUANT	-1.50000E-001	Final E (V)
STEPSIZE	QUANT	2.00000E+000	Step Size (mV)
TIMERRES	QUANT	3.33340E-005	&Timer Resolution
FREQUENCY	QUANT	5.00000E+002	Frequency (Hz)
PULSESIZE	QUANT	2.50000E+001	Pulse Size E (mV)
PULSEON	QUANT	2.00000E-003	Pulse &Time (s)
NOISEREJECT	TOGGLE	F	Noise Rejection
AREA	QUANT	2.00000E-002	Sample Area (cm^2)
IMODE	SELECTOR	1	I/E Range Mode
IRANGE	QUANT	1.00000E-002	Max Current (mA)
EQDELAY	IQUANT	10	Equil. Time (s)
IRCOMP	SELECTOR	0	IRComp
PFCOR	QUANT	5.00000E+001	PF Corr. (ohm)
CYCLES	IQUANT	101	C&ycles (#)
ELECTRODETYPE	SELECTOR	0	Electrode Type
STRIPPING	TOGGLE	F	Used for Stripping
POLARITY	TOGGLE	F	Signal Polarity
LINEFREQ	IQUANT	60	Line Frequency (Hz)
INTPERIOD	QUANT	3.3334E-005	Integration Period (s)
SEQUENCER	TOGGLE	TRUE	Run as Sequence
PSTATMODEL	IQUANT	4	Pstat Model
PSTATSECTION	LABEL	REF600-24079	Pstat Section
PSTATSERIALNO	LABEL	24079	Pstat Serial Number
CTRLMODE	IQUANT	1	Control Mode
ELECTROMETER	IQUANT	0	RE=0 or CS=1
IESTAB	IQUANT	2	I/E Stability
CASPEED	IQUANT	6	Control Amp Speed
CONVENTION	IQUANT	1	Current Convention
ICHRANGE	IQUANT	2	Ich Range
ICHRANGEMODE	TOGGLE	F	Ich Auto Range
ICHOFFSETENABLE	TOGGLE	F	Ich Offset Enable
ICHOFFSET	QUANT	0	Ich Offset (V)
ICHFILTER	IQUANT	1	Ich Filter
VCHRANGE	IQUANT	2	Vch Range
VCHRANGEMODE	TOGGLE	F	Vch Auto Range
VCHOFFSETENABLE	TOGGLE	F	Vch Offset Enable
VCHOFFSET	QUANT	0	Vch Offset (V)
VCHFILTER	IQUANT	1	Vch Filter
ACHRANGE	IQUANT	2	Ach Range
ACHOFFSETENABLE	TOGGLE	F	Ach Offset Enable
ACHOFFSET	QUANT	0	Ach Offset (V)
ACHFILTER	IQUANT	1	Ach Filter
IERANGELOWERLIMIT	IQUANT	1	I/E Range Lower Limit
IERANGEMODE	TOGGLE	F	I/E AutoRange
IERANGE	IQUANT	7	I/E Range
POSFEEDENABLE	TOGGLE	F	Positive Feedback IR Comp
POSFEEDRESISTANCE	QUANT	0	Positive Feedback Resistance (ohm)
ACHSELECT	IQUANT	0	Ach Select
SENSECABLEID	IQUANT	13	Sense Cable ID
PWRCABLEID	IQUANT	13	Power Cable ID
DCCALDATE	LABEL	6/30/2020	DC Calibration Date
ACCALDATE	LABEL	6/30/2020	AC Calibration Date
THERMOSELECT	IQUANT	1	Thermo Select
FRAMEWORKVERSION	LABEL	7.8.2	Framework Version
INSTRUMENTVERSION	LABEL	4.40	Instrument Version
CURVE	TABLE	101
	Pt	T	Vfwd	Vrev	Vstep	Ifwd	Irev	Idif	Sig	Ach	IERange	Over	Temp
	#	s	V	V	V	A	A	A	V	V	#	bits	deg C
	0	0.002	-3.25974E-001	-3.66299E-001	-3.46137E-001	9.86334E-008	-1.21390E-005	1.22377E-005	-3.75000E-001	3.57706E-004	7	..........a	-327.68
	1	0.004	-3.40749E-001	-3.58449E-001	-3.49599E-001	1.13317E-005	-9.59202E-006	2.09237E-005	-3.73000E-001	2.49373E-004	7	..........a	-327.68
	2	0.006	-3.36491E-001	-3.57224E-001	-3.46858E-001	9.96948E-006	-9.86572E-006	1.98352E-005	-3.71000E-001	3.07706E-004	7	..........a	-327.68
	3	0.008	-3.34808E-001	-3.55099E-001	-3.44953E-001	1.01895E-005	-9.79722E-006	1.99867E-005	-3.69000E-001	2.66039E-004	7	..........a	-327.68
	4	0.01	-3.32707E-001	-3.53074E-001	-3.42891E-001	1.01830E-005	-9.78988E-006	1.99729E-005	-3.67000E-001	1.74373E-004	7	..........a	-327.68
	5	0.012	-3.30674E-001	-3.51108E-001	-3.40891E-001	1.01943E-005	-9.77371E-006	1.99681E-005	-3.65000E-001	3.07706E-004	7	..........a	-327.68
	6	0.014	-3.28749E-001	-3.49099E-001	-3.38924E-001	1.01978E-005	-9.76438E-006	1.99622E-005	-3.63000E-001	2.74373E-004	7	..........a	-327.68
	7	0.016	-3.26733E-001	-3.47099E-001	-3.36916E-001	1.02150E-005	-9.75588E-006	1.99709E-005	-3.61000E-001	2.24373E-004	7	..........a	-327.68
	8	0.018	-3.24774E-001	-3.45132E-001	-3.34953E-001	1.02178E-005	-9.74388E-006	1.99617E-005	-3.59000E-001	2.99373E-004	7	..........a	-327.68
	9	0.02	-3.22741E-001	-3.43124E-001	-3.32933E-001	1.02185E-005	-9.74537E-006	1.99639E-005	-3.57000E-001	2.16039E-004	7	..........a	-327.68
	10	0.022	-3.20699E-001	-3.41041E-001	-3.30870E-001	1.02232E-005	-9.74287E-006	1.99661E-005	-3.55000E-001	2.49373E-004	7	..........a	-327.68
	11	0.024	-3.18733E-001	-3.39099E-001	-3.28916E-001	1.02262E-005	-9.73054E-006	1.99567E-005	-3.53000E-001	2.91039E-004	7	..........a	-327.68
	12	0.026	-3.16724E-001	-3.37091E-001	-3.26908E-001	1.02292E-005	-9.72737E-006	1.99566E-005	-3.51000E-001	2.32706E-004	7	..........a	-327.68
	13	0.028	-3.14716E-001	-3.35099E-001	-3.24908E-001	1.02340E-005	-9.72204E-006	1.99561E-005	-3.49000E-001	2.57706E-004	7	..........a	-327.68
	14	0.03	-3.12708E-001	-3.33141E-001	-3.22924E-001	1.02365E-005	-9.71404E-006	1.99506E-005	-3.47000E-001	2.91039E-004	7	..........a	-327.68
	15	0.032	-3.10782E-001	-3.31041E-001	-3.20912E-001	1.02425E-005	-9.71154E-006	1.99541E-005	-3.45000E-001	2.66039E-004	7	..........a	-327.68
	16	0.034	-3.08807E-001	-3.29132E-001	-3.18970E-001	1.02350E-005	-9.70237E-006	1.99374E-005	-3.43000E-001	2.41039E-004	7	..........a	-327.68
	17	0.036	-3.06824E-001	-3.27066E-001	-3.16945E-001	1.02417E-005	-9.70904E-006	1.99507E-005	-3.41000E-001	2.82706E-004	7	..........a	-327.68
	18	0.038	-3.04783E-001	-3.25049E-001	-3.14916E-001	1.02448E-005	-9.70387E-006	1.99487E-005	-3.39000E-001	3.07706E-004	7	..........a	-327.68
	19	0.04	-3.02808E-001	-3.23049E-001	-3.12928E-001	1.02460E-005	-9.69137E-006	1.99374E-005	-3.37000E-001	2.41039E-004	7	..........a	-327.68
	20	0.042	-3.00724E-001	-3.21091E-001	-3.10908E-001	1.02484E-005	-9.69054E-006	1.99389E-005	-3.35000E-001	2.57706E-004	7	..........a	-327.68
	21	0.044	-2.98816E-001	-3.19008E-001	-3.08912E-001	1.02584E-005	-9.68203E-006	1.99404E-005	-3.33000E-001	2.49373E-004	7	..........a	-327.68
	22	0.046	-2.96766E-001	-3.17057E-001	-3.06912E-001	1.02552E-005	-9.68087E-006	1.99360E-005	-3.31000E-001	2.57706E-004	7	..........a	-327.68
	23	0.048	-2.94716E-001	-3.15066E-001	-3.04891E-001	1.02622E-005	-9.67470E-006	1.99369E-005	-3.29000E-001	2.16039E-004	7	..........a	-327.68
	24	0.05	-2.92749E-001	-3.13024E-001	-3.02887E-001	1.02574E-005	-9.67537E-006	1.99327E-005	-3.27000E-001	2.57706E-004	7	..........a	-327.68
	25	0.052	-2.90791E-001	-3.10982E-001	-3.00887E-001	1.02672E-005	-9.66903E-006	1.99362E-005	-3.25000E-001	2.82706E-004	7	..........a	-327.68
	26	0.054	-2.88849E-001	-3.08999E-001	-2.98924E-001	1.02727E-005	-9.65803E-006	1.99307E-005	-3.23000E-001	2.57706E-004	7	..........a	-327.68
	27	0.056	-2.86799E-001	-3.07074E-001	-2.96937E-001	1.02737E-005	-9.65420E-006	1.99279E-005	-3.21000E-001	2.24373E-004	7	..........a	-327.68
	28	0.058	-2.84791E-001	-3.04974E-001	-2.94883E-001	1.02805E-005	-9.65220E-006	1.99327E-005	-3.19000E-001	3.07706E-004	7	..........a	-327.68
	29	0.06	-2.82824E-001	-3.02999E-001	-2.92912E-001	1.02867E-005	-9.64469E-006	1.99314E-005	-3.17000E-001	2.32706E-004	7	..........a	-327.68
	30	0.062	-2.80866E-001	-3.00924E-001	-2.90895E-001	1.02899E-005	-9.63936E-006	1.99292E-005	-3.15000E-001	2.66039E-004	7	..........a	-327.68
	31	0.064	-2.78841E-001	-2.98957E-001	-2.88899E-001	1.02992E-005	-9.62953E-006	1.99287E-005	-3.13000E-001	2.24373E-004	7	..........a	-327.68
	32	0.066	-2.76899E-001	-2.96949E-001	-2.86924E-001	1.02999E-005	-9.62086E-006	1.99207E-005	-3.11000E-001	2.74373E-004	7	..........a	-327.68
	33	0.068	-2.74899E-001	-2.94883E-001	-2.84891E-001	1.03097E-005	-9.61802E-006	1.99277E-005	-3.09000E-001	2.16039E-004	7	..........a	-327.68
	34	0.07	-2.72924E-001	-2.92933E-001	-2.82928E-001	1.03109E-005	-9.60852E-006	1.99194E-005	-3.07000E-001	2.66039E-004	7	..........a	-327.68
	35	0.072	-2.70883E-001	-2.90874E-001	-2.80878E-001	1.03195E-005	-9.60452E-006	1.99240E-005	-3.05000E-001	2.41039E-004	7	..........a	-327.68
	36	0.074	-2.68908E-001	-2.88907E-001	-2.78908E-001	1.03299E-005	-9.59152E-006	1.99214E-005	-3.03000E-001	2.32706E-004	7	..........a	-327.68
	37	0.076	-2.66933E-001	-2.86882E-001	-2.76908E-001	1.03367E-005	-9.58152E-006	1.99182E-005	-3.01000E-001	2.32706E-004	7	..........a	-327.68
	38	0.078	-2.64916E-001	-2.84858E-001	-2.74887E-001	1.03402E-005	-9.57602E-006	1.99162E-005	-2.99000E-001	2.57706E-004	7	..........a	-327.68
	39	0.08	-2.62949E-001	-2.82799E-001	-2.72874E-001	1.03582E-005	-9.56352E-006	1.99217E-005	-2.97000E-001	2.66039E-004	7	..........a	-327.68
	40	0.082	-2.61016E-001	-2.80824E-001	-2.70920E-001	1.03629E-005	-9.55368E-006	1.99165E-005	-2.95000E-001	2.41039E-004	7	..........a	-327.68
	41	0.084	-2.58958E-001	-2.78807E-001	-2.68883E-001	1.03704E-005	-9.54968E-006	1.99200E-005	-2.93000E-001	2.24373E-004	7	..........a	-327.68
	42	0.086	-2.56991E-001	-2.76849E-001	-2.66920E-001	1.03770E-005	-9.54035E-006	1.99174E-005	-2.91000E-001	2.57706E-004	7	..........a	-327.68
	43	0.088	-2.54957E-001	-2.74849E-001	-2.64903E-001	1.03890E-005	-9.52084E-006	1.99099E-005	-2.89000E-001	2.66039E-004	7	..........a	-327.68
	44	0.09	-2.53008E-001	-2.72808E-001	-2.62908E-001	1.03970E-005	-9.51651E-006	1.99135E-005	-2.87000E-001	2.16039E-004	7	..........a	-327.68
	45	0.092	-2.50941E-001	-2.70866E-001	-2.60903E-001	1.03980E-005	-9.50184E-006	1.98999E-005	-2.85000E-001	2.82706E-004	7	..........a	-327.68
	46	0.094	-2.49049E-001	-2.68741E-001	-2.58895E-001	1.04142E-005	-9.49467E-006	1.99089E-005	-2.83000E-001	2.16039E-004	7	..........a	-327.68
	47	0.096	-2.47041E-001	-2.66791E-001	-2.56916E-001	1.04214E-005	-9.48367E-006	1.99050E-005	-2.81000E-001	2.24373E-004	7	..........a	-327.68
	48	0.098	-2.44949E-001	-2.64816E-001	-2.54883E-001	1.04212E-005	-9.47917E-006	1.99004E-005	-2.79000E-001	2.66039E-004	7	..........a	-327.68
	49	0.1	-2.43049E-001	-2.62857E-001	-2.52953E-001	1.04304E-005	-9.47500E-006	1.99054E-005	-2.77000E-001	1.82706E-004	7	..........a	-327.68
	50	0.102	-2.41041E-001	-2.60808E-001	-2.50924E-001	1.04349E-005	-9.45817E-006	1.98930E-005	-2.75000E-001	2.49373E-004	7	..........a	-327.68
	51	0.104	-2.39033E-001	-2.58758E-001	-2.48895E-001	1.04400E-005	-9.45534E-006	1.98954E-005	-2.73000E-001	2.49373E-004	7	..........a	-327.68
	52	0.106	-2.36924E-001	-2.56774E-001	-2.46849E-001	1.04460E-005	-9.44633E-006	1.98924E-005	-2.71000E-001	2.24373E-004	7	..........a	-327.68
	53	0.108	-2.34974E-001	-2.54858E-001	-2.44916E-001	1.04504E-005	-9.44350E-006	1.98939E-005	-2.69000E-001	2.91039E-004	7	..........a	-327.68
	54	0.11	-2.32949E-001	-2.52824E-001	-2.42887E-001	1.04479E-005	-9.43317E-006	1.98810E-005	-2.67000E-001	2.57706E-004	7	..........a	-327.68
	55	0.112	-2.31058E-001	-2.50816E-001	-2.40937E-001	1.04517E-005	-9.42983E-006	1.98815E-005	-2.65000E-001	2.57706E-004	7	..........a	-327.68
	56	0.114	-2.28941E-001	-2.48924E-001	-2.38933E-001	1.04460E-005	-9.42916E-006	1.98752E-005	-2.63000E-001	2.41039E-004	7	..........a	-327.68
	57	0.116	-2.26966E-001	-2.46908E-001	-2.36937E-001	1.04465E-005	-9.42233E-006	1.98689E-005	-2.61000E-001	3.16039E-004	7	..........a	-327.68
	58	0.118	-2.24974E-001	-2.44858E-001	-2.34916E-001	1.04437E-005	-9.41466E-006	1.98584E-005	-2.59000E-001	2.16039E-004	7	..........a	-327.68
	59	0.12	-2.22916E-001	-2.42841E-001	-2.32878E-001	1.04375E-005	-9.41766E-006	1.98552E-005	-2.57000E-001	2.66039E-004	7	..........a	-327.68
	60	0.122	-2.20891E-001	-2.40883E-001	-2.30887E-001	1.04359E-005	-9.41933E-006	1.98552E-005	-2.55000E-001	2.32706E-004	7	..........a	-327.68
	61	0.124	-2.18874E-001	-2.38874E-001	-2.28874E-001	1.04299E-005	-9.41516E-006	1.98450E-005	-2.53000E-001	1.99373E-004	7	..........a	-327.68
	62	0.126	-2.16916E-001	-2.36949E-001	-2.26933E-001	1.04284E-005	-9.41633E-006	1.98447E-005	-2.51000E-001	2.66039E-004	7	..........a	-327.68
	63	0.128	-2.14833E-001	-2.34966E-001	-2.24899E-001	1.04145E-005	-9.41683E-006	1.98314E-005	-2.49000E-001	2.41039E-004	7	..........a	-327.68
	64	0.13	-2.12791E-001	-2.32991E-001	-2.22891E-001	1.04160E-005	-9.42016E-006	1.98362E-005	-2.47000E-001	3.16039E-004	7	..........a	-327.68
	65	0.132	-2.10799E-001	-2.31008E-001	-2.20903E-001	1.03994E-005	-9.42033E-006	1.98197E-005	-2.45000E-001	2.66039E-004	7	..........a	-327.68
	66	0.134	-2.08866E-001	-2.29024E-001	-2.18945E-001	1.03942E-005	-9.41750E-006	1.98117E-005	-2.43000E-001	2.82706E-004	7	..........a	-327.68
	67	0.136	-2.06758E-001	-2.27016E-001	-2.16887E-001	1.03824E-005	-9.42850E-006	1.98109E-005	-2.41000E-001	2.74373E-004	7	..........a	-327.68
	68	0.138	-2.04766E-001	-2.25091E-001	-2.14928E-001	1.03720E-005	-9.42666E-006	1.97987E-005	-2.39000E-001	2.82706E-004	7	..........a	-327.68
	69	0.14	-2.02741E-001	-2.23099E-001	-2.12920E-001	1.03714E-005	-9.42700E-006	1.97984E-005	-2.37000E-001	2.99373E-004	7	..........a	-327.68
	70	0.142	-2.00708E-001	-2.21166E-001	-2.10937E-001	1.03574E-005	-9.43500E-006	1.97924E-005	-2.35000E-001	2.41039E-004	7	..........a	-327.68
	71	0.144	-1.98666E-001	-2.19108E-001	-2.08887E-001	1.03512E-005	-9.43883E-006	1.97900E-005	-2.33000E-001	2.91039E-004	7	..........a	-327.68
	72	0.146	-1.96691E-001	-2.17158E-001	-2.06924E-001	1.03447E-005	-9.44250E-006	1.97872E-005	-2.31000E-001	3.24373E-004	7	..........a	-327.68
	73	0.148	-1.94674E-001	-2.15166E-001	-2.04920E-001	1.03315E-005	-9.44217E-006	1.97737E-005	-2.29000E-001	2.49373E-004	7	..........a	-327.68
	74	0.15	-1.92624E-001	-2.13166E-001	-2.02895E-001	1.03237E-005	-9.45217E-006	1.97759E-005	-2.27000E-001	2.74373E-004	7	..........a	-327.68
	75	0.152	-1.90733E-001	-2.11158E-001	-2.00945E-001	1.03214E-005	-9.45183E-006	1.97732E-005	-2.25000E-001	2.82706E-004	7	..........a	-327.68
	76	0.154	-1.88674E-001	-2.09183E-001	-1.98928E-001	1.03092E-005	-9.45617E-006	1.97654E-005	-2.23000E-001	2.82706E-004	7	..........a	-327.68
	77	0.156	-1.86583E-001	-2.07191E-001	-1.96887E-001	1.03044E-005	-9.46034E-006	1.97647E-005	-2.21000E-001	2.24373E-004	7	..........a	-327.68
	78	0.158	-1.84599E-001	-2.05216E-001	-1.94908E-001	1.02964E-005	-9.46900E-006	1.97654E-005	-2.19000E-001	2.91039E-004	7	..........a	-327.68
	79	0.16	-1.82524E-001	-2.03241E-001	-1.92883E-001	1.02860E-005	-9.46984E-006	1.97559E-005	-2.17000E-001	2.57706E-004	7	..........a	-327.68
	80	0.162	-1.80583E-001	-2.01241E-001	-1.90912E-001	1.02854E-005	-9.47017E-006	1.97555E-005	-2.15000E-001	2.66039E-004	7	..........a	-327.68
	81	0.164	-1.78541E-001	-1.99291E-001	-1.88916E-001	1.02734E-005	-9.47667E-006	1.97500E-005	-2.13000E-001	2.41039E-004	7	..........a	-327.68
	82	0.166	-1.76524E-001	-1.97324E-001	-1.86924E-001	1.02740E-005	-9.48101E-006	1.97550E-005	-2.11000E-001	2.32706E-004	7	..........a	-327.68
	83	0.168	-1.74524E-001	-1.95283E-001	-1.84903E-001	1.02692E-005	-9.47901E-006	1.97482E-005	-2.09000E-001	1.99373E-004	7	..........a	-327.68
	84	0.17	-1.72541E-001	-1.93274E-001	-1.82908E-001	1.02634E-005	-9.48684E-006	1.97502E-005	-2.07000E-001	2.32706E-004	7	..........a	-327.68
	85	0.172	-1.70549E-001	-1.91333E-001	-1.80941E-001	1.02564E-005	-9.49084E-006	1.97472E-005	-2.05000E-001	2.57706E-004	7	..........a	-327.68
	86	0.174	-1.68499E-001	-1.89341E-001	-1.78920E-001	1.02535E-005	-9.49101E-006	1.97445E-005	-2.03000E-001	2.74373E-004	7	..........a	-327.68
	87	0.176	-1.66508E-001	-1.87274E-001	-1.76891E-001	1.02547E-005	-9.49267E-006	1.97474E-005	-2.01000E-001	2.24373E-004	7	..........a	-327.68
	88	0.178	-1.64524E-001	-1.85316E-001	-1.74920E-001	1.02460E-005	-9.49817E-006	1.97442E-005	-1.99000E-001	2.32706E-004	7	..........a	-327.68
	89	0.18	-1.62449E-001	-1.83308E-001	-1.72878E-001	1.02520E-005	-9.49901E-006	1.97510E-005	-1.97000E-001	2.74373E-004	7	..........a	-327.68
	90	0.182	-1.60458E-001	-1.81366E-001	-1.70912E-001	1.02427E-005	-9.50934E-006	1.97520E-005	-1.95000E-001	2.32706E-004	7	..........a	-327.68
	91	0.184	-1.58524E-001	-1.79358E-001	-1.68941E-001	1.02442E-005	-9.50051E-006	1.97447E-005	-1.93000E-001	2.41039E-004	7	..........a	-327.68
	92	0.186	-1.56466E-001	-1.77358E-001	-1.66912E-001	1.02357E-005	-9.51001E-006	1.97457E-005	-1.91000E-001	2.49373E-004	7	..........a	-327.68
	93	0.188	-1.54399E-001	-1.75366E-001	-1.64883E-001	1.02407E-005	-9.51218E-006	1.97529E-005	-1.89000E-001	2.49373E-004	7	..........a	-327.68
	94	0.19	-1.52508E-001	-1.73316E-001	-1.62912E-001	1.02392E-005	-9.51118E-006	1.97504E-005	-1.87000E-001	2.24373E-004	7	..........a	-327.68
	95	0.192	-1.50516E-001	-1.71333E-001	-1.60924E-001	1.02373E-005	-9.51368E-006	1.97510E-005	-1.85000E-001	1.82706E-004	7	..........a	-327.68
	96	0.194	-1.48483E-001	-1.69358E-001	-1.58920E-001	1.02345E-005	-9.51351E-006	1.97480E-005	-1.83000E-001	3.16039E-004	7	..........a	-327.68
	97	0.196	-1.46524E-001	-1.67324E-001	-1.56924E-001	1.02292E-005	-9.51234E-006	1.97415E-005	-1.81000E-001	2.32706E-004	7	..........a	-327.68
	98	0.198	-1.44458E-001	-1.65299E-001	-1.54878E-001	1.02303E-005	-9.51484E-006	1.97452E-005	-1.79000E-001	2.49373E-004	7	..........a	-327.68
	99	0.2	-1.42458E-001	-1.63333E-001	-1.52895E-001	1.02243E-005	-9.51818E-006	1.97425E-005	-1.77000E-001	2.66039E-004	7	..........a	-327.68
	100	0.202	-1.40483E-001	-1.61266E-001	-1.50874E-001	1.02310E-005	-9.51951E-006	1.97505E-005	-1.75000E-001	2.66039E-004	7	..........a	-327.68
