EXPLAIN
TAG	SQUARE_WAVE
TITLE	LABEL	Square Wave Voltammetry	Test Identifier
DATE	LABEL	8/25/2020	Date
TIME	LABEL	15:02:11	Time
NOTES	NOTES	1	Notes...
	
PSTAT	PSTAT	REF600-24079	Potentiostat
VINIT	QUANT	-3.50000E-001	Initial E (V)
VFINAL	QUANT	-1.50000E-001	Final E (V)
STEPSIZE	QUANT	2.00000E+000	Step Size (mV)
TIMERRES	QUANT	3.33340E-005	&Timer Resolution
FREQUENCY	QUANT	1.00000E+001	Frequency (Hz)
PULSESIZE	QUANT	2.50000E+001	Pulse Size E (mV)
PULSEON	QUANT	1.00000E-001	Pulse &Time (s)
NOISEREJECT	TOGGLE	F	Noise Rejection
AREA	QUANT	2.00000E-002	Sample Area (cm^2)
IMODE	SELECTOR	1	I/E Range Mode
IRANGE	QUANT	1.00000E-003	Max Current (mA)
EQDELAY	IQUANT	10	Equil. Time (s)
IRCOMP	SELECTOR	0	IRComp
PFCOR	QUANT	5.00000E+001	PF Corr. (ohm)
CYCLES	IQUANT	101	C&ycles (#)
ELECTRODETYPE	SELECTOR	0	Electrode Type
STRIPPING	TOGGLE	F	Used for Stripping
POLARITY	TOGGLE	F	Signal Polarity
LINEFREQ	IQUANT	60	Line Frequency (Hz)
INTPERIOD	QUANT	3.3334E-005	Integration Period (s)
SEQUENCER	TOGGLE	TRUE	Run as Sequence
PSTATMODEL	IQUANT	4	Pstat Model
PSTATSECTION	LABEL	REF600-24079	Pstat Section
PSTATSERIALNO	LABEL	24079	Pstat Serial Number
CTRLMODE	IQUANT	1	Control Mode
ELECTROMETER	IQUANT	0	RE=0 or CS=1
IESTAB	IQUANT	2	I/E Stability
CASPEED	IQUANT	6	Control Amp Speed
CONVENTION	IQUANT	1	Current Convention
ICHRANGE	IQUANT	2	Ich Range
ICHRANGEMODE	TOGGLE	F	Ich Auto Range
ICHOFFSETENABLE	TOGGLE	F	Ich Offset Enable
ICHOFFSET	QUANT	0	Ich Offset (V)
ICHFILTER	IQUANT	2	Ich Filter
VCHRANGE	IQUANT	2	Vch Range
VCHRANGEMODE	TOGGLE	F	Vch Auto Range
VCHOFFSETENABLE	TOGGLE	F	Vch Offset Enable
VCHOFFSET	QUANT	0	Vch Offset (V)
VCHFILTER	IQUANT	2	Vch Filter
ACHRANGE	IQUANT	2	Ach Range
ACHOFFSETENABLE	TOGGLE	F	Ach Offset Enable
ACHOFFSET	QUANT	0	Ach Offset (V)
ACHFILTER	IQUANT	1	Ach Filter
IERANGELOWERLIMIT	IQUANT	1	I/E Range Lower Limit
IERANGEMODE	TOGGLE	F	I/E AutoRange
IERANGE	IQUANT	6	I/E Range
POSFEEDENABLE	TOGGLE	F	Positive Feedback IR Comp
POSFEEDRESISTANCE	QUANT	0	Positive Feedback Resistance (ohm)
ACHSELECT	IQUANT	0	Ach Select
SENSECABLEID	IQUANT	13	Sense Cable ID
PWRCABLEID	IQUANT	13	Power Cable ID
DCCALDATE	LABEL	6/30/2020	DC Calibration Date
ACCALDATE	LABEL	6/30/2020	AC Calibration Date
THERMOSELECT	IQUANT	1	Thermo Select
FRAMEWORKVERSION	LABEL	7.8.2	Framework Version
INSTRUMENTVERSION	LABEL	4.40	Instrument Version
CURVE	TABLE	101
	Pt	T	Vfwd	Vrev	Vstep	Ifwd	Irev	Idif	Sig	Ach	IERange	Over	Temp
	#	s	V	V	V	A	A	A	V	V	#	bits	deg C
	0	0.1	-3.24920E-001	-3.74920E-001	-3.49920E-001	-1.03944E-008	-3.76852E-008	2.72908E-008	-3.75000E-001	3.99706E-004	6	..........a	-327.68
	1	0.2	-3.22888E-001	-3.72938E-001	-3.47913E-001	2.02942E-010	-3.35270E-008	3.37300E-008	-3.73000E-001	3.97873E-004	6	..........a	-327.68
	2	0.3	-3.20935E-001	-3.70817E-001	-3.45876E-001	2.02317E-009	-3.19795E-008	3.40027E-008	-3.71000E-001	3.85206E-004	6	..........a	-327.68
	3	0.4	-3.18895E-001	-3.68999E-001	-3.43947E-001	3.23266E-009	-3.07070E-008	3.39396E-008	-3.69000E-001	3.76706E-004	6	..........a	-327.68
	4	0.5	-3.16871E-001	-3.66903E-001	-3.41887E-001	4.10544E-009	-3.03223E-008	3.44277E-008	-3.67000E-001	3.83873E-004	6	..........a	-327.68
	5	0.6	-3.14866E-001	-3.64912E-001	-3.39889E-001	4.76386E-009	-2.96042E-008	3.43680E-008	-3.65000E-001	3.86539E-004	6	..........a	-327.68
	6	0.7	-3.12920E-001	-3.62830E-001	-3.37875E-001	5.48962E-009	-2.88398E-008	3.43294E-008	-3.63000E-001	3.81039E-004	6	..........a	-327.68
	7	0.8	-3.10897E-001	-3.60938E-001	-3.35918E-001	6.21237E-009	-2.85701E-008	3.47824E-008	-3.61000E-001	3.96873E-004	6	..........a	-327.68
	8	0.9	-3.08913E-001	-3.58902E-001	-3.33907E-001	6.76911E-009	-2.81853E-008	3.49545E-008	-3.59000E-001	3.68539E-004	6	..........a	-327.68
	9	1	-3.06860E-001	-3.56938E-001	-3.31899E-001	7.58755E-009	-2.79080E-008	3.54955E-008	-3.57000E-001	3.70206E-004	6	..........a	-327.68
	10	1.1	-3.04953E-001	-3.54881E-001	-3.29917E-001	8.27697E-009	-2.78700E-008	3.61469E-008	-3.55000E-001	3.78706E-004	6	..........a	-327.68
	11	1.2	-3.02929E-001	-3.52953E-001	-3.27941E-001	8.92472E-009	-2.74936E-008	3.64183E-008	-3.53000E-001	3.83206E-004	6	..........a	-327.68
	12	1.3	-3.00944E-001	-3.50920E-001	-3.25932E-001	9.69215E-009	-2.74992E-008	3.71914E-008	-3.51000E-001	3.85039E-004	6	..........a	-327.68
	13	1.4	-2.98887E-001	-3.48949E-001	-3.23918E-001	1.05086E-008	-2.74356E-008	3.79442E-008	-3.49000E-001	3.92206E-004	6	..........a	-327.68
	14	1.5	-2.96943E-001	-3.46902E-001	-3.21923E-001	1.14300E-008	-2.74946E-008	3.89246E-008	-3.47000E-001	3.85539E-004	6	..........a	-327.68
	15	1.6	-2.94930E-001	-3.45021E-001	-3.19975E-001	1.23405E-008	-2.74119E-008	3.97524E-008	-3.45000E-001	3.84373E-004	6	..........a	-327.68
	16	1.7	-2.92801E-001	-3.42880E-001	-3.17840E-001	1.33496E-008	-2.74812E-008	4.08309E-008	-3.43000E-001	3.80706E-004	6	..........a	-327.68
	17	1.8	-2.90814E-001	-3.40917E-001	-3.15865E-001	1.42787E-008	-2.77796E-008	4.20584E-008	-3.41000E-001	3.80539E-004	6	..........a	-327.68
	18	1.9	-2.88948E-001	-3.38840E-001	-3.13894E-001	1.54722E-008	-2.80153E-008	4.34875E-008	-3.39000E-001	3.71706E-004	6	..........a	-327.68
	19	2	-2.86888E-001	-3.36927E-001	-3.11907E-001	1.68504E-008	-2.83634E-008	4.52138E-008	-3.37000E-001	3.84206E-004	6	..........a	-327.68
	20	2.1	-2.84913E-001	-3.34899E-001	-3.09906E-001	1.81889E-008	-2.87981E-008	4.69870E-008	-3.35000E-001	3.96706E-004	6	..........a	-327.68
	21	2.2	-2.82850E-001	-3.32905E-001	-3.07877E-001	1.95117E-008	-2.91971E-008	4.87089E-008	-3.33000E-001	3.84206E-004	6	..........a	-327.68
	22	2.3	-2.80976E-001	-3.30858E-001	-3.05917E-001	2.11176E-008	-2.97402E-008	5.08578E-008	-3.31000E-001	3.98206E-004	6	..........a	-327.68
	23	2.4	-2.78907E-001	-3.28961E-001	-3.03934E-001	2.28852E-008	-3.04170E-008	5.33021E-008	-3.29000E-001	3.97039E-004	6	..........a	-327.68
	24	2.5	-2.76939E-001	-3.26921E-001	-3.01930E-001	2.42510E-008	-3.13087E-008	5.55597E-008	-3.27000E-001	3.96373E-004	6	..........a	-327.68
	25	2.6	-2.74881E-001	-3.24928E-001	-2.99905E-001	2.60476E-008	-3.21258E-008	5.81734E-008	-3.25000E-001	4.04539E-004	6	..........a	-327.68
	26	2.7	-2.72928E-001	-3.22903E-001	-2.97915E-001	2.80121E-008	-3.31973E-008	6.12095E-008	-3.23000E-001	3.91373E-004	6	..........a	-327.68
	27	2.8	-2.70925E-001	-3.20931E-001	-2.95928E-001	2.97784E-008	-3.41011E-008	6.38795E-008	-3.21000E-001	3.95373E-004	6	..........a	-327.68
	28	2.9	-2.68926E-001	-3.18914E-001	-2.93920E-001	3.15209E-008	-3.52186E-008	6.67395E-008	-3.19000E-001	3.88539E-004	6	..........a	-327.68
	29	3	-2.66808E-001	-3.16856E-001	-2.91832E-001	3.34948E-008	-3.66021E-008	7.00969E-008	-3.17000E-001	3.95873E-004	6	..........a	-327.68
	30	3.1	-2.64962E-001	-3.14848E-001	-2.89905E-001	3.55604E-008	-3.80409E-008	7.36014E-008	-3.15000E-001	3.98873E-004	6	..........a	-327.68
	31	3.2	-2.62894E-001	-3.12913E-001	-2.87903E-001	3.71963E-008	-3.95134E-008	7.67098E-008	-3.13000E-001	3.92539E-004	6	..........a	-327.68
	32	3.3	-2.60870E-001	-3.10891E-001	-2.85880E-001	3.88385E-008	-4.11843E-008	8.00229E-008	-3.11000E-001	4.04706E-004	6	..........a	-327.68
	33	3.4	-2.58839E-001	-3.08912E-001	-2.83875E-001	4.04071E-008	-4.26855E-008	8.30926E-008	-3.09000E-001	3.93206E-004	6	..........a	-327.68
	34	3.5	-2.56920E-001	-3.06866E-001	-2.81893E-001	4.20476E-008	-4.44804E-008	8.65280E-008	-3.07000E-001	3.93706E-004	6	..........a	-327.68
	35	3.6	-2.54913E-001	-3.04964E-001	-2.79938E-001	4.36758E-008	-4.61123E-008	8.97881E-008	-3.05000E-001	4.08206E-004	6	..........a	-327.68
	36	3.7	-2.52932E-001	-3.02923E-001	-2.77928E-001	4.47239E-008	-4.77422E-008	9.24661E-008	-3.03000E-001	4.05373E-004	6	..........a	-327.68
	37	3.8	-2.50882E-001	-3.00950E-001	-2.75916E-001	4.55770E-008	-4.94957E-008	9.50728E-008	-3.01000E-001	3.99706E-004	6	..........a	-327.68
	38	3.9	-2.48922E-001	-2.98896E-001	-2.73909E-001	4.64128E-008	-5.12966E-008	9.77094E-008	-2.99000E-001	4.05039E-004	6	..........a	-327.68
	39	4	-2.46914E-001	-2.96930E-001	-2.71922E-001	4.69999E-008	-5.25288E-008	9.95287E-008	-2.97000E-001	4.10706E-004	6	..........a	-327.68
	40	4.1	-2.44914E-001	-2.94905E-001	-2.69909E-001	4.74376E-008	-5.44220E-008	1.01860E-007	-2.95000E-001	4.12539E-004	6	..........a	-327.68
	41	4.2	-2.42799E-001	-2.92904E-001	-2.67852E-001	4.75773E-008	-5.56872E-008	1.03264E-007	-2.93000E-001	3.95206E-004	6	..........a	-327.68
	42	4.3	-2.40961E-001	-2.90829E-001	-2.65895E-001	4.74456E-008	-5.67576E-008	1.04203E-007	-2.91000E-001	4.13373E-004	6	..........a	-327.68
	43	4.4	-2.38887E-001	-2.88928E-001	-2.63908E-001	4.71573E-008	-5.77258E-008	1.04883E-007	-2.89000E-001	4.19873E-004	6	..........a	-327.68
	44	4.5	-2.36887E-001	-2.86872E-001	-2.61880E-001	4.69065E-008	-5.85322E-008	1.05439E-007	-2.87000E-001	4.05039E-004	6	..........a	-327.68
	45	4.6	-2.34823E-001	-2.84935E-001	-2.59879E-001	4.60051E-008	-5.92893E-008	1.05294E-007	-2.85000E-001	4.15039E-004	6	..........a	-327.68
	46	4.7	-2.32900E-001	-2.82859E-001	-2.57880E-001	4.53910E-008	-5.96143E-008	1.05005E-007	-2.83000E-001	4.19706E-004	6	..........a	-327.68
	47	4.8	-2.30880E-001	-2.80985E-001	-2.55932E-001	4.44426E-008	-5.99067E-008	1.04349E-007	-2.81000E-001	4.10039E-004	6	..........a	-327.68
	48	4.9	-2.28868E-001	-2.78906E-001	-2.53887E-001	4.33044E-008	-5.96303E-008	1.02935E-007	-2.79000E-001	4.26706E-004	6	..........a	-327.68
	49	5	-2.26854E-001	-2.76930E-001	-2.51892E-001	4.22720E-008	-5.90283E-008	1.01300E-007	-2.77000E-001	4.14039E-004	6	..........a	-327.68
	50	5.1	-2.24927E-001	-2.74895E-001	-2.49911E-001	4.11508E-008	-5.87646E-008	9.99154E-008	-2.75000E-001	4.22539E-004	6	..........a	-327.68
	51	5.2	-2.22900E-001	-2.72932E-001	-2.47916E-001	3.97493E-008	-5.77944E-008	9.75437E-008	-2.73000E-001	4.22373E-004	6	..........a	-327.68
	52	5.3	-2.20924E-001	-2.70904E-001	-2.45914E-001	3.85618E-008	-5.64166E-008	9.49784E-008	-2.71000E-001	4.13539E-004	6	..........a	-327.68
	53	5.4	-2.18887E-001	-2.68929E-001	-2.43908E-001	3.70066E-008	-5.52134E-008	9.22201E-008	-2.69000E-001	4.14039E-004	6	..........a	-327.68
	54	5.5	-2.17005E-001	-2.66819E-001	-2.41912E-001	3.57265E-008	-5.37663E-008	8.94927E-008	-2.67000E-001	4.19373E-004	6	..........a	-327.68
	55	5.6	-2.14874E-001	-2.64971E-001	-2.39922E-001	3.44270E-008	-5.22691E-008	8.66960E-008	-2.65000E-001	4.15373E-004	6	..........a	-327.68
	56	5.7	-2.12882E-001	-2.62907E-001	-2.37894E-001	3.32455E-008	-5.05032E-008	8.37487E-008	-2.63000E-001	4.19206E-004	6	..........a	-327.68
	57	5.8	-2.10843E-001	-2.60904E-001	-2.35874E-001	3.17116E-008	-4.84112E-008	8.01229E-008	-2.61000E-001	4.15539E-004	6	..........a	-327.68
	58	5.9	-2.08901E-001	-2.58854E-001	-2.33877E-001	3.06541E-008	-4.65803E-008	7.72345E-008	-2.59000E-001	4.12539E-004	6	..........a	-327.68
	59	6	-2.06888E-001	-2.56918E-001	-2.31903E-001	2.95150E-008	-4.43597E-008	7.38747E-008	-2.57000E-001	4.11706E-004	6	..........a	-327.68
	60	6.1	-2.04884E-001	-2.54913E-001	-2.29898E-001	2.84002E-008	-4.23371E-008	7.07373E-008	-2.55000E-001	4.11706E-004	6	..........a	-327.68
	61	6.2	-2.02850E-001	-2.52919E-001	-2.27885E-001	2.70624E-008	-4.02492E-008	6.73116E-008	-2.53000E-001	3.98539E-004	6	..........a	-327.68
	62	6.3	-2.00923E-001	-2.50884E-001	-2.25903E-001	2.61539E-008	-3.83873E-008	6.45412E-008	-2.51000E-001	3.93873E-004	6	..........a	-327.68
	63	6.4	-1.98905E-001	-2.48936E-001	-2.23921E-001	2.52205E-008	-3.61970E-008	6.14175E-008	-2.49000E-001	3.97706E-004	6	..........a	-327.68
	64	6.5	-1.96928E-001	-2.46917E-001	-2.21922E-001	2.40416E-008	-3.43561E-008	5.83978E-008	-2.47000E-001	4.00873E-004	6	..........a	-327.68
	65	6.6	-1.94896E-001	-2.44919E-001	-2.19907E-001	2.33989E-008	-3.25052E-008	5.59041E-008	-2.45000E-001	3.95706E-004	6	..........a	-327.68
	66	6.7	-1.92918E-001	-2.42803E-001	-2.17860E-001	2.24974E-008	-3.04653E-008	5.29627E-008	-2.43000E-001	3.94873E-004	6	..........a	-327.68
	67	6.8	-1.90889E-001	-2.40956E-001	-2.15922E-001	2.19714E-008	-2.90211E-008	5.09925E-008	-2.41000E-001	3.91373E-004	6	..........a	-327.68
	68	6.9	-1.88852E-001	-2.38894E-001	-2.13873E-001	2.11903E-008	-2.72962E-008	4.84865E-008	-2.39000E-001	3.90206E-004	6	..........a	-327.68
	69	7	-1.86835E-001	-2.36887E-001	-2.11861E-001	2.04308E-008	-2.56090E-008	4.60399E-008	-2.37000E-001	3.96373E-004	6	..........a	-327.68
	70	7.1	-1.84903E-001	-2.34841E-001	-2.09872E-001	2.00291E-008	-2.43662E-008	4.43953E-008	-2.35000E-001	4.04206E-004	6	..........a	-327.68
	71	7.2	-1.82889E-001	-2.32914E-001	-2.07902E-001	1.93897E-008	-2.30684E-008	4.24581E-008	-2.33000E-001	4.13873E-004	6	..........a	-327.68
	72	7.3	-1.80871E-001	-2.30897E-001	-2.05884E-001	1.89693E-008	-2.19965E-008	4.09659E-008	-2.31000E-001	4.03039E-004	6	..........a	-327.68
	73	7.4	-1.78850E-001	-2.28916E-001	-2.03883E-001	1.85993E-008	-2.08481E-008	3.94474E-008	-2.29000E-001	4.06039E-004	6	..........a	-327.68
	74	7.5	-1.76930E-001	-2.26854E-001	-2.01892E-001	1.81542E-008	-1.97453E-008	3.78995E-008	-2.27000E-001	3.96873E-004	6	..........a	-327.68
	75	7.6	-1.74908E-001	-2.24927E-001	-1.99917E-001	1.78802E-008	-1.90688E-008	3.69490E-008	-2.25000E-001	3.99206E-004	6	..........a	-327.68
	76	7.7	-1.72927E-001	-2.22908E-001	-1.97918E-001	1.76125E-008	-1.80944E-008	3.57069E-008	-2.23000E-001	3.97539E-004	6	..........a	-327.68
	77	7.8	-1.70874E-001	-2.20912E-001	-1.95893E-001	1.73015E-008	-1.73116E-008	3.46131E-008	-2.21000E-001	4.03873E-004	6	..........a	-327.68
	78	7.9	-1.68916E-001	-2.18897E-001	-1.93906E-001	1.71588E-008	-1.66642E-008	3.38230E-008	-2.19000E-001	3.98039E-004	6	..........a	-327.68
	79	8	-1.66911E-001	-2.16999E-001	-1.91955E-001	1.69227E-008	-1.58928E-008	3.28155E-008	-2.17000E-001	3.89706E-004	6	..........a	-327.68
	80	8.1	-1.64769E-001	-2.14867E-001	-1.89818E-001	1.67630E-008	-1.53840E-008	3.21471E-008	-2.15000E-001	3.86039E-004	6	..........a	-327.68
	81	8.2	-1.62806E-001	-2.12831E-001	-1.87819E-001	1.64130E-008	-1.49360E-008	3.13490E-008	-2.13000E-001	3.92039E-004	6	..........a	-327.68
	82	8.3	-1.60915E-001	-2.10821E-001	-1.85868E-001	1.64940E-008	-1.43102E-008	3.08043E-008	-2.11000E-001	3.90539E-004	6	..........a	-327.68
	83	8.4	-1.58897E-001	-2.08903E-001	-1.83900E-001	1.60723E-008	-1.39619E-008	3.00342E-008	-2.09000E-001	3.84039E-004	6	..........a	-327.68
	84	8.5	-1.56862E-001	-2.06894E-001	-1.81878E-001	1.62286E-008	-1.34411E-008	2.96698E-008	-2.07000E-001	4.05373E-004	6	..........a	-327.68
	85	8.6	-1.54820E-001	-2.04856E-001	-1.79838E-001	1.59079E-008	-1.31571E-008	2.90650E-008	-2.05000E-001	3.83206E-004	6	..........a	-327.68
	86	8.7	-1.52923E-001	-2.02852E-001	-1.77887E-001	1.58346E-008	-1.29177E-008	2.87523E-008	-2.03000E-001	3.97706E-004	6	..........a	-327.68
	87	8.8	-1.50909E-001	-2.00947E-001	-1.75928E-001	1.60070E-008	-1.25103E-008	2.85173E-008	-2.01000E-001	4.11539E-004	6	..........a	-327.68
	88	8.9	-1.48904E-001	-1.98913E-001	-1.73908E-001	1.59086E-008	-1.23080E-008	2.82166E-008	-1.99000E-001	4.04873E-004	6	..........a	-327.68
	89	9	-1.46869E-001	-1.96909E-001	-1.71889E-001	1.58009E-008	-1.19673E-008	2.77682E-008	-1.97000E-001	3.96539E-004	6	..........a	-327.68
	90	9.1	-1.44896E-001	-1.94889E-001	-1.69893E-001	1.58749E-008	-1.17516E-008	2.76265E-008	-1.95000E-001	4.00373E-004	6	..........a	-327.68
	91	9.2	-1.42925E-001	-1.92915E-001	-1.67920E-001	1.60203E-008	-1.16429E-008	2.76632E-008	-1.93000E-001	3.87039E-004	6	..........a	-327.68
	92	9.3	-1.40911E-001	-1.90864E-001	-1.65888E-001	1.58923E-008	-1.14705E-008	2.73628E-008	-1.91000E-001	3.95039E-004	6	..........a	-327.68
	93	9.4	-1.38800E-001	-1.88813E-001	-1.63807E-001	1.57216E-008	-1.12275E-008	2.69491E-008	-1.89000E-001	3.96706E-004	6	..........a	-327.68
	94	9.5	-1.36902E-001	-1.86828E-001	-1.61865E-001	1.57369E-008	-1.09555E-008	2.66924E-008	-1.87000E-001	3.90039E-004	6	..........a	-327.68
	95	9.6	-1.34935E-001	-1.84907E-001	-1.59921E-001	1.58299E-008	-1.08448E-008	2.66747E-008	-1.85000E-001	3.91373E-004	6	..........a	-327.68
	96	9.7	-1.32826E-001	-1.82873E-001	-1.57850E-001	1.58569E-008	-1.07611E-008	2.66181E-008	-1.83000E-001	3.96206E-004	6	..........a	-327.68
	97	9.8	-1.30829E-001	-1.80844E-001	-1.55837E-001	1.58769E-008	-1.07601E-008	2.66371E-008	-1.81000E-001	3.96039E-004	6	..........a	-327.68
	98	9.9	-1.28874E-001	-1.78846E-001	-1.53860E-001	1.59349E-008	-1.03887E-008	2.63237E-008	-1.79000E-001	3.98039E-004	6	..........a	-327.68
	99	10	-1.26923E-001	-1.76937E-001	-1.51930E-001	1.59209E-008	-1.06634E-008	2.65844E-008	-1.77000E-001	3.90039E-004	6	..........a	-327.68
	100	10.1	-1.24903E-001	-1.74910E-001	-1.49906E-001	1.60026E-008	-1.01144E-008	2.61170E-008	-1.75000E-001	3.96373E-004	6	..........a	-327.68
