EXPLAIN
TAG	SQUARE_WAVE
TITLE	LABEL	Square Wave Voltammetry	Test Identifier
DATE	LABEL	8/31/2020	Date
TIME	LABEL	12:51:02	Time
NOTES	NOTES	1	Notes...
	
PSTAT	PSTAT	REF600-24079	Potentiostat
VINIT	QUANT	-3.50000E-001	Initial E (V)
VFINAL	QUANT	-1.50000E-001	Final E (V)
STEPSIZE	QUANT	2.00000E+000	Step Size (mV)
TIMERRES	QUANT	3.33340E-005	&Timer Resolution
FREQUENCY	QUANT	1.00000E+002	Frequency (Hz)
PULSESIZE	QUANT	2.50000E+001	Pulse Size E (mV)
PULSEON	QUANT	1.00000E-002	Pulse &Time (s)
NOISEREJECT	TOGGLE	F	Noise Rejection
AREA	QUANT	2.00000E-002	Sample Area (cm^2)
IMODE	SELECTOR	1	I/E Range Mode
IRANGE	QUANT	1.00000E-002	Max Current (mA)
EQDELAY	IQUANT	10	Equil. Time (s)
IRCOMP	SELECTOR	0	IRComp
PFCOR	QUANT	5.00000E+001	PF Corr. (ohm)
CYCLES	IQUANT	101	C&ycles (#)
ELECTRODETYPE	SELECTOR	0	Electrode Type
STRIPPING	TOGGLE	F	Used for Stripping
POLARITY	TOGGLE	F	Signal Polarity
LINEFREQ	IQUANT	60	Line Frequency (Hz)
INTPERIOD	QUANT	3.3334E-005	Integration Period (s)
SEQUENCER	TOGGLE	TRUE	Run as Sequence
PSTATMODEL	IQUANT	4	Pstat Model
PSTATSECTION	LABEL	REF600-24079	Pstat Section
PSTATSERIALNO	LABEL	24079	Pstat Serial Number
CTRLMODE	IQUANT	1	Control Mode
ELECTROMETER	IQUANT	0	RE=0 or CS=1
IESTAB	IQUANT	2	I/E Stability
CASPEED	IQUANT	6	Control Amp Speed
CONVENTION	IQUANT	1	Current Convention
ICHRANGE	IQUANT	2	Ich Range
ICHRANGEMODE	TOGGLE	F	Ich Auto Range
ICHOFFSETENABLE	TOGGLE	F	Ich Offset Enable
ICHOFFSET	QUANT	0	Ich Offset (V)
ICHFILTER	IQUANT	2	Ich Filter
VCHRANGE	IQUANT	2	Vch Range
VCHRANGEMODE	TOGGLE	F	Vch Auto Range
VCHOFFSETENABLE	TOGGLE	F	Vch Offset Enable
VCHOFFSET	QUANT	0	Vch Offset (V)
VCHFILTER	IQUANT	2	Vch Filter
ACHRANGE	IQUANT	2	Ach Range
ACHOFFSETENABLE	TOGGLE	F	Ach Offset Enable
ACHOFFSET	QUANT	0	Ach Offset (V)
ACHFILTER	IQUANT	1	Ach Filter
IERANGELOWERLIMIT	IQUANT	1	I/E Range Lower Limit
IERANGEMODE	TOGGLE	F	I/E AutoRange
IERANGE	IQUANT	7	I/E Range
POSFEEDENABLE	TOGGLE	F	Positive Feedback IR Comp
POSFEEDRESISTANCE	QUANT	0	Positive Feedback Resistance (ohm)
ACHSELECT	IQUANT	0	Ach Select
SENSECABLEID	IQUANT	13	Sense Cable ID
PWRCABLEID	IQUANT	13	Power Cable ID
DCCALDATE	LABEL	6/30/2020	DC Calibration Date
ACCALDATE	LABEL	6/30/2020	AC Calibration Date
THERMOSELECT	IQUANT	1	Thermo Select
FRAMEWORKVERSION	LABEL	7.8.2	Framework Version
INSTRUMENTVERSION	LABEL	4.40	Instrument Version
CURVE	TABLE	101
	Pt	T	Vfwd	Vrev	Vstep	Ifwd	Irev	Idif	Sig	Ach	IERange	Over	Temp
	#	s	V	V	V	A	A	A	V	V	#	bits	deg C
	0	0.01	-3.24881E-001	-3.74214E-001	-3.49548E-001	-1.04632E-010	-2.83677E-007	2.83572E-007	-3.75000E-001	2.89373E-004	7	..........a	-327.68
	1	0.02	-3.23524E-001	-3.72254E-001	-3.47889E-001	1.87854E-007	-2.48238E-007	4.36093E-007	-3.73000E-001	3.26039E-004	7	..........a	-327.68
	2	0.03	-3.21499E-001	-3.70308E-001	-3.45903E-001	2.06157E-007	-2.37504E-007	4.43660E-007	-3.71000E-001	3.67706E-004	7	..........a	-327.68
	3	0.04	-3.19479E-001	-3.68214E-001	-3.43847E-001	2.10891E-007	-2.32070E-007	4.42960E-007	-3.69000E-001	3.21039E-004	7	..........a	-327.68
	4	0.05	-3.17548E-001	-3.66216E-001	-3.41882E-001	2.19092E-007	-2.29002E-007	4.48094E-007	-3.67000E-001	3.32706E-004	7	..........a	-327.68
	5	0.06	-3.15588E-001	-3.64253E-001	-3.39920E-001	2.22292E-007	-2.26736E-007	4.49028E-007	-3.65000E-001	3.49373E-004	7	..........a	-327.68
	6	0.07	-3.13483E-001	-3.62258E-001	-3.37870E-001	2.22859E-007	-2.24502E-007	4.47361E-007	-3.63000E-001	3.37706E-004	7	..........a	-327.68
	7	0.08	-3.11489E-001	-3.60251E-001	-3.35870E-001	2.27126E-007	-2.27402E-007	4.54529E-007	-3.61000E-001	3.61039E-004	7	..........a	-327.68
	8	0.09	-3.09498E-001	-3.58186E-001	-3.33842E-001	2.30027E-007	-2.23235E-007	4.53262E-007	-3.59000E-001	3.44373E-004	7	..........a	-327.68
	9	0.1	-3.07479E-001	-3.56246E-001	-3.31863E-001	2.31794E-007	-2.25535E-007	4.57329E-007	-3.57000E-001	3.27706E-004	7	..........a	-327.68
	10	0.11	-3.05473E-001	-3.54284E-001	-3.29878E-001	2.35294E-007	-2.26769E-007	4.62063E-007	-3.55000E-001	3.17706E-004	7	..........a	-327.68
	11	0.12	-3.03521E-001	-3.52231E-001	-3.27876E-001	2.35894E-007	-2.27502E-007	4.63396E-007	-3.53000E-001	3.42706E-004	7	..........a	-327.68
	12	0.13	-3.01524E-001	-3.50213E-001	-3.25868E-001	2.40295E-007	-2.26569E-007	4.66864E-007	-3.51000E-001	3.07706E-004	7	..........a	-327.68
	13	0.14	-2.99501E-001	-3.48234E-001	-3.23868E-001	2.41195E-007	-2.28502E-007	4.69697E-007	-3.49000E-001	3.31039E-004	7	..........a	-327.68
	14	0.15	-2.97496E-001	-3.46231E-001	-3.21863E-001	2.44395E-007	-2.31336E-007	4.75731E-007	-3.47000E-001	3.31039E-004	7	..........a	-327.68
	15	0.16	-2.95499E-001	-3.44231E-001	-3.19865E-001	2.45562E-007	-2.31469E-007	4.77032E-007	-3.45000E-001	3.06039E-004	7	..........a	-327.68
	16	0.17	-2.93511E-001	-3.42198E-001	-3.17854E-001	2.48229E-007	-2.31336E-007	4.79565E-007	-3.43000E-001	3.29373E-004	7	..........a	-327.68
	17	0.18	-2.91476E-001	-3.40279E-001	-3.15878E-001	2.51330E-007	-2.34437E-007	4.85766E-007	-3.41000E-001	3.16039E-004	7	..........a	-327.68
	18	0.19	-2.89471E-001	-3.38271E-001	-3.13871E-001	2.53130E-007	-2.37004E-007	4.90133E-007	-3.39000E-001	3.17706E-004	7	..........a	-327.68
	19	0.2	-2.87499E-001	-3.36204E-001	-3.11852E-001	2.58864E-007	-2.41538E-007	5.00401E-007	-3.37000E-001	2.84373E-004	7	..........a	-327.68
	20	0.21	-2.85496E-001	-3.34231E-001	-3.09863E-001	2.63931E-007	-2.46005E-007	5.09936E-007	-3.35000E-001	3.39373E-004	7	..........a	-327.68
	21	0.22	-2.83454E-001	-3.32268E-001	-3.07861E-001	2.67398E-007	-2.48739E-007	5.16137E-007	-3.33000E-001	3.37706E-004	7	..........a	-327.68
	22	0.23	-2.81416E-001	-3.30271E-001	-3.05843E-001	2.74033E-007	-2.55139E-007	5.29172E-007	-3.31000E-001	3.37706E-004	7	..........a	-327.68
	23	0.24	-2.79478E-001	-3.28308E-001	-3.03893E-001	2.75800E-007	-2.60607E-007	5.36406E-007	-3.29000E-001	3.24373E-004	7	..........a	-327.68
	24	0.25	-2.77486E-001	-3.26224E-001	-3.01855E-001	2.82634E-007	-2.63007E-007	5.45641E-007	-3.27000E-001	3.29373E-004	7	..........a	-327.68
	25	0.26	-2.75464E-001	-3.24303E-001	-2.99883E-001	2.89468E-007	-2.65074E-007	5.54542E-007	-3.25000E-001	3.49373E-004	7	..........a	-327.68
	26	0.27	-2.73429E-001	-3.22273E-001	-2.97851E-001	2.89835E-007	-2.70408E-007	5.60243E-007	-3.23000E-001	3.62706E-004	7	..........a	-327.68
	27	0.28	-2.71496E-001	-3.20286E-001	-2.95891E-001	2.98769E-007	-2.74309E-007	5.73078E-007	-3.21000E-001	3.67706E-004	7	..........a	-327.68
	28	0.29	-2.69498E-001	-3.18144E-001	-2.93821E-001	3.02470E-007	-2.82143E-007	5.84613E-007	-3.19000E-001	3.52706E-004	7	..........a	-327.68
	29	0.3	-2.67398E-001	-3.16261E-001	-2.91829E-001	3.08304E-007	-2.86777E-007	5.95081E-007	-3.17000E-001	3.32706E-004	7	..........a	-327.68
	30	0.31	-2.65411E-001	-3.14306E-001	-2.89858E-001	3.17305E-007	-2.94011E-007	6.11317E-007	-3.15000E-001	3.22706E-004	7	..........a	-327.68
	31	0.32	-2.63464E-001	-3.12271E-001	-2.87868E-001	3.23573E-007	-3.00112E-007	6.23685E-007	-3.13000E-001	3.62706E-004	7	..........a	-327.68
	32	0.33	-2.61474E-001	-3.10204E-001	-2.85839E-001	3.31474E-007	-3.05313E-007	6.36787E-007	-3.11000E-001	3.27706E-004	7	..........a	-327.68
	33	0.34	-2.59433E-001	-3.08278E-001	-2.83855E-001	3.36508E-007	-3.11147E-007	6.47655E-007	-3.09000E-001	3.29373E-004	7	..........a	-327.68
	34	0.35	-2.57399E-001	-3.06328E-001	-2.81863E-001	3.45042E-007	-3.17748E-007	6.62790E-007	-3.07000E-001	3.44373E-004	7	..........a	-327.68
	35	0.36	-2.55454E-001	-3.04318E-001	-2.79886E-001	3.52277E-007	-3.22715E-007	6.74992E-007	-3.05000E-001	3.17706E-004	7	..........a	-327.68
	36	0.37	-2.53451E-001	-3.02274E-001	-2.77863E-001	3.57611E-007	-3.27949E-007	6.85560E-007	-3.03000E-001	3.16039E-004	7	..........a	-327.68
	37	0.38	-2.51459E-001	-3.00309E-001	-2.75884E-001	3.65479E-007	-3.31383E-007	6.96862E-007	-3.01000E-001	3.62706E-004	7	..........a	-327.68
	38	0.39	-2.49399E-001	-2.98324E-001	-2.73862E-001	3.70546E-007	-3.35750E-007	7.06296E-007	-2.99000E-001	3.11039E-004	7	..........a	-327.68
	39	0.4	-2.47436E-001	-2.96283E-001	-2.71859E-001	3.78347E-007	-3.39984E-007	7.18331E-007	-2.97000E-001	3.37706E-004	7	..........a	-327.68
	40	0.41	-2.45444E-001	-2.94233E-001	-2.69838E-001	3.81781E-007	-3.40818E-007	7.22598E-007	-2.95000E-001	3.26039E-004	7	..........a	-327.68
	41	0.42	-2.43439E-001	-2.92278E-001	-2.67858E-001	3.85115E-007	-3.44485E-007	7.29599E-007	-2.93000E-001	3.31039E-004	7	..........a	-327.68
	42	0.43	-2.41341E-001	-2.90331E-001	-2.65836E-001	3.86148E-007	-3.44985E-007	7.31133E-007	-2.91000E-001	3.31039E-004	7	..........a	-327.68
	43	0.44	-2.39456E-001	-2.88283E-001	-2.63869E-001	3.87615E-007	-3.45852E-007	7.33467E-007	-2.89000E-001	3.27706E-004	7	..........a	-327.68
	44	0.45	-2.37479E-001	-2.86228E-001	-2.61853E-001	3.89682E-007	-3.46318E-007	7.36000E-007	-2.87000E-001	3.37706E-004	7	..........a	-327.68
	45	0.46	-2.35423E-001	-2.84296E-001	-2.59859E-001	3.93216E-007	-3.46218E-007	7.39434E-007	-2.85000E-001	3.17706E-004	7	..........a	-327.68
	46	0.47	-2.33396E-001	-2.82313E-001	-2.57854E-001	3.93349E-007	-3.48185E-007	7.41534E-007	-2.83000E-001	3.26039E-004	7	..........a	-327.68
	47	0.48	-2.31434E-001	-2.80274E-001	-2.55854E-001	3.94749E-007	-3.46152E-007	7.40901E-007	-2.81000E-001	3.46039E-004	7	..........a	-327.68
	48	0.49	-2.29446E-001	-2.78268E-001	-2.53857E-001	3.92349E-007	-3.43118E-007	7.35467E-007	-2.79000E-001	3.37706E-004	7	..........a	-327.68
	49	0.5	-2.27429E-001	-2.76316E-001	-2.51873E-001	3.89448E-007	-3.41184E-007	7.30633E-007	-2.77000E-001	3.47706E-004	7	..........a	-327.68
	50	0.51	-2.25378E-001	-2.74318E-001	-2.49848E-001	3.88815E-007	-3.35684E-007	7.24499E-007	-2.75000E-001	3.26039E-004	7	..........a	-327.68
	51	0.52	-2.23443E-001	-2.72294E-001	-2.47868E-001	3.83448E-007	-3.28583E-007	7.12030E-007	-2.73000E-001	3.57706E-004	7	..........a	-327.68
	52	0.53	-2.21446E-001	-2.70278E-001	-2.45862E-001	3.80214E-007	-3.24516E-007	7.04729E-007	-2.71000E-001	3.21039E-004	7	..........a	-327.68
	53	0.54	-2.19429E-001	-2.68303E-001	-2.43866E-001	3.75180E-007	-3.18981E-007	6.94161E-007	-2.69000E-001	3.26039E-004	7	..........a	-327.68
	54	0.55	-2.17414E-001	-2.66331E-001	-2.41873E-001	3.71146E-007	-3.14081E-007	6.85227E-007	-2.67000E-001	2.96039E-004	7	..........a	-327.68
	55	0.56	-2.15434E-001	-2.64303E-001	-2.39868E-001	3.66779E-007	-3.06980E-007	6.73759E-007	-2.65000E-001	3.37706E-004	7	..........a	-327.68
	56	0.57	-2.13488E-001	-2.62253E-001	-2.37870E-001	3.61445E-007	-3.02946E-007	6.64391E-007	-2.63000E-001	3.24373E-004	7	..........a	-327.68
	57	0.58	-2.11449E-001	-2.60269E-001	-2.35859E-001	3.58844E-007	-2.96478E-007	6.55323E-007	-2.61000E-001	3.36039E-004	7	..........a	-327.68
	58	0.59	-2.09399E-001	-2.58331E-001	-2.33865E-001	3.52610E-007	-2.90578E-007	6.43188E-007	-2.59000E-001	3.19373E-004	7	..........a	-327.68
	59	0.6	-2.07453E-001	-2.56293E-001	-2.31873E-001	3.47309E-007	-2.84777E-007	6.32086E-007	-2.57000E-001	3.34373E-004	7	..........a	-327.68
	60	0.61	-2.05481E-001	-2.54226E-001	-2.29853E-001	3.44609E-007	-2.75909E-007	6.20518E-007	-2.55000E-001	3.19373E-004	7	..........a	-327.68
	61	0.62	-2.03489E-001	-2.52291E-001	-2.27890E-001	3.35808E-007	-2.73842E-007	6.09650E-007	-2.53000E-001	3.21039E-004	7	..........a	-327.68
	62	0.63	-2.01441E-001	-2.50306E-001	-2.25873E-001	3.35241E-007	-2.65907E-007	6.01149E-007	-2.51000E-001	3.39373E-004	7	..........a	-327.68
	63	0.64	-1.99473E-001	-2.48318E-001	-2.23895E-001	3.30640E-007	-2.58140E-007	5.88780E-007	-2.49000E-001	3.26039E-004	7	..........a	-327.68
	64	0.65	-1.97481E-001	-2.46261E-001	-2.21871E-001	3.24706E-007	-2.54639E-007	5.79346E-007	-2.47000E-001	3.46039E-004	7	..........a	-327.68
	65	0.66	-1.95469E-001	-2.44306E-001	-2.19888E-001	3.20206E-007	-2.49405E-007	5.69611E-007	-2.45000E-001	3.57706E-004	7	..........a	-327.68
	66	0.67	-1.93423E-001	-2.42298E-001	-2.17860E-001	3.15938E-007	-2.43838E-007	5.59776E-007	-2.43000E-001	3.36039E-004	7	..........a	-327.68
	67	0.68	-1.91419E-001	-2.40261E-001	-2.15840E-001	3.13205E-007	-2.37270E-007	5.50475E-007	-2.41000E-001	3.42706E-004	7	..........a	-327.68
	68	0.69	-1.89481E-001	-2.38259E-001	-2.13870E-001	3.07604E-007	-2.32703E-007	5.40307E-007	-2.39000E-001	3.42706E-004	7	..........a	-327.68
	69	0.7	-1.87448E-001	-2.36283E-001	-2.11865E-001	3.04870E-007	-2.29969E-007	5.34840E-007	-2.37000E-001	3.39373E-004	7	..........a	-327.68
	70	0.71	-1.85418E-001	-2.34293E-001	-2.09855E-001	3.01603E-007	-2.21601E-007	5.23205E-007	-2.35000E-001	3.14373E-004	7	..........a	-327.68
	71	0.72	-1.83414E-001	-2.32279E-001	-2.07847E-001	2.98036E-007	-2.20601E-007	5.18637E-007	-2.33000E-001	3.44373E-004	7	..........a	-327.68
	72	0.73	-1.81456E-001	-2.30241E-001	-2.05848E-001	2.97903E-007	-2.18168E-007	5.16070E-007	-2.31000E-001	3.66039E-004	7	..........a	-327.68
	73	0.74	-1.79419E-001	-2.28276E-001	-2.03848E-001	2.93369E-007	-2.16401E-007	5.09769E-007	-2.29000E-001	3.34373E-004	7	..........a	-327.68
	74	0.75	-1.77394E-001	-2.26293E-001	-2.01843E-001	2.94669E-007	-2.11167E-007	5.05836E-007	-2.27000E-001	3.27706E-004	7	..........a	-327.68
	75	0.76	-1.75443E-001	-2.24301E-001	-1.99872E-001	2.92102E-007	-2.06533E-007	4.98635E-007	-2.25000E-001	3.19373E-004	7	..........a	-327.68
	76	0.77	-1.73463E-001	-2.22248E-001	-1.97855E-001	2.88301E-007	-2.05199E-007	4.93501E-007	-2.23000E-001	3.29373E-004	7	..........a	-327.68
	77	0.78	-1.71411E-001	-2.20268E-001	-1.95839E-001	2.87168E-007	-2.01065E-007	4.88233E-007	-2.21000E-001	3.41039E-004	7	..........a	-327.68
	78	0.79	-1.69409E-001	-2.18286E-001	-1.93848E-001	2.83834E-007	-1.97565E-007	4.81399E-007	-2.19000E-001	3.32706E-004	7	..........a	-327.68
	79	0.8	-1.67473E-001	-2.16251E-001	-1.91862E-001	2.82601E-007	-1.96798E-007	4.79399E-007	-2.17000E-001	3.16039E-004	7	..........a	-327.68
	80	0.81	-1.65461E-001	-2.14213E-001	-1.89837E-001	2.77767E-007	-1.93064E-007	4.70831E-007	-2.15000E-001	3.54373E-004	7	..........a	-327.68
	81	0.82	-1.63418E-001	-2.12298E-001	-1.87858E-001	2.79033E-007	-1.95431E-007	4.74465E-007	-2.13000E-001	3.14373E-004	7	..........a	-327.68
	82	0.83	-1.61464E-001	-2.10293E-001	-1.85878E-001	2.79200E-007	-1.94364E-007	4.73565E-007	-2.11000E-001	3.37706E-004	7	..........a	-327.68
	83	0.84	-1.59448E-001	-2.08254E-001	-1.83851E-001	2.79367E-007	-1.91831E-007	4.71198E-007	-2.09000E-001	3.21039E-004	7	..........a	-327.68
	84	0.85	-1.57474E-001	-2.06233E-001	-1.81853E-001	2.79834E-007	-1.91564E-007	4.71398E-007	-2.07000E-001	2.87706E-004	7	..........a	-327.68
	85	0.86	-1.55426E-001	-2.04289E-001	-1.79858E-001	2.79400E-007	-1.90464E-007	4.69864E-007	-2.05000E-001	3.27706E-004	7	..........a	-327.68
	86	0.87	-1.53431E-001	-2.02319E-001	-1.77875E-001	2.76633E-007	-1.88497E-007	4.65130E-007	-2.03000E-001	3.44373E-004	7	..........a	-327.68
	87	0.88	-1.51448E-001	-2.00304E-001	-1.75876E-001	2.75800E-007	-1.86330E-007	4.62130E-007	-2.01000E-001	3.41039E-004	7	..........a	-327.68
	88	0.89	-1.49474E-001	-1.98251E-001	-1.73863E-001	2.75400E-007	-1.84530E-007	4.59929E-007	-1.99000E-001	3.11039E-004	7	..........a	-327.68
	89	0.9	-1.47443E-001	-1.96256E-001	-1.71849E-001	2.75633E-007	-1.83630E-007	4.59263E-007	-1.97000E-001	3.27706E-004	7	..........a	-327.68
	90	0.91	-1.45443E-001	-1.94308E-001	-1.69875E-001	2.75600E-007	-1.83330E-007	4.58929E-007	-1.95000E-001	3.44373E-004	7	..........a	-327.68
	91	0.92	-1.43458E-001	-1.92273E-001	-1.67865E-001	2.71932E-007	-1.81963E-007	4.53895E-007	-1.93000E-001	3.42706E-004	7	..........a	-327.68
	92	0.93	-1.41461E-001	-1.90193E-001	-1.65827E-001	2.72733E-007	-1.83930E-007	4.56662E-007	-1.91000E-001	3.27706E-004	7	..........a	-327.68
	93	0.94	-1.39371E-001	-1.88261E-001	-1.63816E-001	2.72566E-007	-1.82329E-007	4.54895E-007	-1.89000E-001	3.36039E-004	7	..........a	-327.68
	94	0.95	-1.37394E-001	-1.86311E-001	-1.61853E-001	2.73666E-007	-1.81296E-007	4.54962E-007	-1.87000E-001	3.01039E-004	7	..........a	-327.68
	95	0.96	-1.35458E-001	-1.84279E-001	-1.59868E-001	2.72166E-007	-1.80796E-007	4.52962E-007	-1.85000E-001	3.37706E-004	7	..........a	-327.68
	96	0.97	-1.33451E-001	-1.82241E-001	-1.57846E-001	2.71066E-007	-1.81263E-007	4.52328E-007	-1.83000E-001	3.06039E-004	7	..........a	-327.68
	97	0.98	-1.31421E-001	-1.80241E-001	-1.55831E-001	2.72466E-007	-1.81763E-007	4.54229E-007	-1.81000E-001	3.22706E-004	7	..........a	-327.68
	98	0.99	-1.29418E-001	-1.78303E-001	-1.53860E-001	2.71032E-007	-1.82296E-007	4.53328E-007	-1.79000E-001	3.37706E-004	7	..........a	-327.68
	99	1	-1.27448E-001	-1.76248E-001	-1.51848E-001	2.73199E-007	-1.80396E-007	4.53595E-007	-1.77000E-001	3.44373E-004	7	..........a	-327.68
	100	1.01	-1.25478E-001	-1.74231E-001	-1.49854E-001	2.72833E-007	-1.78796E-007	4.51628E-007	-1.75000E-001	3.46039E-004	7	..........a	-327.68
