EXPLAIN
TAG	SQUARE_WAVE
TITLE	LABEL	Square Wave Voltammetry	Test Identifier
DATE	LABEL	8/31/2020	Date
TIME	LABEL	12:51:34	Time
NOTES	NOTES	1	Notes...
	
PSTAT	PSTAT	REF600-24079	Potentiostat
VINIT	QUANT	-3.50000E-001	Initial E (V)
VFINAL	QUANT	-1.50000E-001	Final E (V)
STEPSIZE	QUANT	2.00000E+000	Step Size (mV)
TIMERRES	QUANT	3.33340E-005	&Timer Resolution
FREQUENCY	QUANT	3.00000E+002	Frequency (Hz)
PULSESIZE	QUANT	2.50000E+001	Pulse Size E (mV)
PULSEON	QUANT	3.33333E-003	Pulse &Time (s)
NOISEREJECT	TOGGLE	F	Noise Rejection
AREA	QUANT	2.00000E-002	Sample Area (cm^2)
IMODE	SELECTOR	1	I/E Range Mode
IRANGE	QUANT	1.00000E-002	Max Current (mA)
EQDELAY	IQUANT	10	Equil. Time (s)
IRCOMP	SELECTOR	0	IRComp
PFCOR	QUANT	5.00000E+001	PF Corr. (ohm)
CYCLES	IQUANT	101	C&ycles (#)
ELECTRODETYPE	SELECTOR	0	Electrode Type
STRIPPING	TOGGLE	F	Used for Stripping
POLARITY	TOGGLE	F	Signal Polarity
LINEFREQ	IQUANT	60	Line Frequency (Hz)
INTPERIOD	QUANT	3.3334E-005	Integration Period (s)
SEQUENCER	TOGGLE	TRUE	Run as Sequence
PSTATMODEL	IQUANT	4	Pstat Model
PSTATSECTION	LABEL	REF600-24079	Pstat Section
PSTATSERIALNO	LABEL	24079	Pstat Serial Number
CTRLMODE	IQUANT	1	Control Mode
ELECTROMETER	IQUANT	0	RE=0 or CS=1
IESTAB	IQUANT	2	I/E Stability
CASPEED	IQUANT	6	Control Amp Speed
CONVENTION	IQUANT	1	Current Convention
ICHRANGE	IQUANT	2	Ich Range
ICHRANGEMODE	TOGGLE	F	Ich Auto Range
ICHOFFSETENABLE	TOGGLE	F	Ich Offset Enable
ICHOFFSET	QUANT	0	Ich Offset (V)
ICHFILTER	IQUANT	1	Ich Filter
VCHRANGE	IQUANT	2	Vch Range
VCHRANGEMODE	TOGGLE	F	Vch Auto Range
VCHOFFSETENABLE	TOGGLE	F	Vch Offset Enable
VCHOFFSET	QUANT	0	Vch Offset (V)
VCHFILTER	IQUANT	1	Vch Filter
ACHRANGE	IQUANT	2	Ach Range
ACHOFFSETENABLE	TOGGLE	F	Ach Offset Enable
ACHOFFSET	QUANT	0	Ach Offset (V)
ACHFILTER	IQUANT	1	Ach Filter
IERANGELOWERLIMIT	IQUANT	1	I/E Range Lower Limit
IERANGEMODE	TOGGLE	F	I/E AutoRange
IERANGE	IQUANT	7	I/E Range
POSFEEDENABLE	TOGGLE	F	Positive Feedback IR Comp
POSFEEDRESISTANCE	QUANT	0	Positive Feedback Resistance (ohm)
ACHSELECT	IQUANT	0	Ach Select
SENSECABLEID	IQUANT	13	Sense Cable ID
PWRCABLEID	IQUANT	13	Power Cable ID
DCCALDATE	LABEL	6/30/2020	DC Calibration Date
ACCALDATE	LABEL	6/30/2020	AC Calibration Date
THERMOSELECT	IQUANT	1	Thermo Select
FRAMEWORKVERSION	LABEL	7.8.2	Framework Version
INSTRUMENTVERSION	LABEL	4.40	Instrument Version
CURVE	TABLE	101
	Pt	T	Vfwd	Vrev	Vstep	Ifwd	Irev	Idif	Sig	Ach	IERange	Over	Temp
	#	s	V	V	V	A	A	A	V	V	#	bits	deg C
	0	0.003333	-3.24354E-001	-3.79669E-001	-3.52012E-001	4.31592E-008	-5.26786E-006	5.31102E-006	-3.75000E-001	3.52706E-004	7	..........a	-327.68
	1	0.006667	-3.17029E-001	-3.77259E-001	-3.47144E-001	6.30501E-006	-6.55184E-006	1.28569E-005	-3.73000E-001	3.42706E-004	7	..........a	-327.68
	2	0.01	-3.15264E-001	-3.75169E-001	-3.45217E-001	6.57565E-006	-6.55014E-006	1.31258E-005	-3.71000E-001	2.97706E-004	7	..........a	-327.68
	3	0.013333	-3.13339E-001	-3.73174E-001	-3.43257E-001	6.60925E-006	-6.53494E-006	1.31442E-005	-3.69000E-001	3.47706E-004	7	..........a	-327.68
	4	0.016667	-3.11374E-001	-3.71194E-001	-3.41284E-001	6.61706E-006	-6.52694E-006	1.31440E-005	-3.67000E-001	3.87706E-004	7	..........a	-327.68
	5	0.02	-3.09309E-001	-3.69109E-001	-3.39209E-001	6.63546E-006	-6.52154E-006	1.31570E-005	-3.65000E-001	3.67706E-004	7	..........a	-327.68
	6	0.023333	-3.07369E-001	-3.67149E-001	-3.37259E-001	6.63936E-006	-6.52084E-006	1.31602E-005	-3.63000E-001	3.07706E-004	7	..........a	-327.68
	7	0.026667	-3.05379E-001	-3.65079E-001	-3.35229E-001	6.65616E-006	-6.51974E-006	1.31759E-005	-3.61000E-001	2.97706E-004	7	..........a	-327.68
	8	0.03	-3.03414E-001	-3.63104E-001	-3.33259E-001	6.66526E-006	-6.51573E-006	1.31810E-005	-3.59000E-001	3.82706E-004	7	..........a	-327.68
	9	0.033333	-3.01454E-001	-3.61134E-001	-3.31294E-001	6.68236E-006	-6.52864E-006	1.32110E-005	-3.57000E-001	3.27706E-004	7	..........a	-327.68
	10	0.036667	-2.99394E-001	-3.59144E-001	-3.29269E-001	6.70357E-006	-6.52554E-006	1.32291E-005	-3.55000E-001	3.47706E-004	7	..........a	-327.68
	11	0.04	-2.97494E-001	-3.57099E-001	-3.27297E-001	6.70527E-006	-6.53374E-006	1.32390E-005	-3.53000E-001	3.22706E-004	7	..........a	-327.68
	12	0.043333	-2.95474E-001	-3.55064E-001	-3.25269E-001	6.72057E-006	-6.53654E-006	1.32571E-005	-3.51000E-001	3.12706E-004	7	..........a	-327.68
	13	0.046667	-2.93469E-001	-3.53074E-001	-3.23272E-001	6.73777E-006	-6.54644E-006	1.32842E-005	-3.49000E-001	2.67706E-004	7	..........a	-327.68
	14	0.05	-2.91504E-001	-3.51079E-001	-3.21292E-001	6.75387E-006	-6.54964E-006	1.33035E-005	-3.47000E-001	3.92706E-004	7	..........a	-327.68
	15	0.053333	-2.89479E-001	-3.49054E-001	-3.19267E-001	6.76638E-006	-6.56094E-006	1.33273E-005	-3.45000E-001	3.42706E-004	7	..........a	-327.68
	16	0.056667	-2.87534E-001	-3.47044E-001	-3.17289E-001	6.79278E-006	-6.57474E-006	1.33675E-005	-3.43000E-001	3.67706E-004	7	..........a	-327.68
	17	0.06	-2.85549E-001	-3.44989E-001	-3.15269E-001	6.80688E-006	-6.58874E-006	1.33956E-005	-3.41000E-001	2.92706E-004	7	..........a	-327.68
	18	0.063333	-2.83624E-001	-3.42989E-001	-3.13307E-001	6.83919E-006	-6.60295E-006	1.34421E-005	-3.39000E-001	3.57706E-004	7	..........a	-327.68
	19	0.066667	-2.81614E-001	-3.40964E-001	-3.11289E-001	6.85599E-006	-6.61915E-006	1.34751E-005	-3.37000E-001	3.17706E-004	7	..........a	-327.68
	20	0.07	-2.79684E-001	-3.38949E-001	-3.09317E-001	6.88129E-006	-6.63225E-006	1.35135E-005	-3.35000E-001	3.37706E-004	7	..........a	-327.68
	21	0.073333	-2.77704E-001	-3.36924E-001	-3.07314E-001	6.90899E-006	-6.64855E-006	1.35575E-005	-3.33000E-001	3.87706E-004	7	..........a	-327.68
	22	0.076667	-2.75719E-001	-3.34869E-001	-3.05294E-001	6.93810E-006	-6.67286E-006	1.36110E-005	-3.31000E-001	3.62706E-004	7	..........a	-327.68
	23	0.08	-2.73789E-001	-3.32839E-001	-3.03314E-001	6.96980E-006	-6.68876E-006	1.36586E-005	-3.29000E-001	3.72706E-004	7	..........a	-327.68
	24	0.083333	-2.71804E-001	-3.30849E-001	-3.01327E-001	7.00001E-006	-6.71056E-006	1.37106E-005	-3.27000E-001	3.07706E-004	7	..........a	-327.68
	25	0.086667	-2.69864E-001	-3.28814E-001	-2.99339E-001	7.03191E-006	-6.72776E-006	1.37597E-005	-3.25000E-001	3.07706E-004	7	..........a	-327.68
	26	0.09	-2.67889E-001	-3.26804E-001	-2.97347E-001	7.06472E-006	-6.75517E-006	1.38199E-005	-3.23000E-001	3.22706E-004	7	..........a	-327.68
	27	0.093333	-2.65879E-001	-3.24729E-001	-2.95304E-001	7.09982E-006	-6.76937E-006	1.38692E-005	-3.21000E-001	2.97706E-004	7	..........a	-327.68
	28	0.096667	-2.64014E-001	-3.22704E-001	-2.93359E-001	7.13663E-006	-6.79647E-006	1.39331E-005	-3.19000E-001	3.22706E-004	7	..........a	-327.68
	29	0.1	-2.62024E-001	-3.20619E-001	-2.91322E-001	7.17123E-006	-6.81958E-006	1.39908E-005	-3.17000E-001	2.92706E-004	7	..........a	-327.68
	30	0.103333	-2.60054E-001	-3.18634E-001	-2.89344E-001	7.20423E-006	-6.84668E-006	1.40509E-005	-3.15000E-001	2.52706E-004	7	..........a	-327.68
	31	0.106667	-2.58109E-001	-3.16574E-001	-2.87342E-001	7.24694E-006	-6.87328E-006	1.41202E-005	-3.13000E-001	3.67706E-004	7	..........a	-327.68
	32	0.11	-2.56229E-001	-3.14579E-001	-2.85404E-001	7.28375E-006	-6.89659E-006	1.41803E-005	-3.11000E-001	3.27706E-004	7	..........a	-327.68
	33	0.113333	-2.54179E-001	-3.12559E-001	-2.83369E-001	7.32965E-006	-6.92299E-006	1.42526E-005	-3.09000E-001	3.47706E-004	7	..........a	-327.68
	34	0.116667	-2.52304E-001	-3.10499E-001	-2.81402E-001	7.35786E-006	-6.94149E-006	1.42993E-005	-3.07000E-001	3.22706E-004	7	..........a	-327.68
	35	0.12	-2.50284E-001	-3.08454E-001	-2.79369E-001	7.39296E-006	-6.96060E-006	1.43536E-005	-3.05000E-001	3.07706E-004	7	..........a	-327.68
	36	0.123333	-2.48354E-001	-3.06434E-001	-2.77394E-001	7.42877E-006	-6.98060E-006	1.44094E-005	-3.03000E-001	3.02706E-004	7	..........a	-327.68
	37	0.126667	-2.46404E-001	-3.04384E-001	-2.75394E-001	7.46317E-006	-7.00420E-006	1.44674E-005	-3.01000E-001	3.07706E-004	7	..........a	-327.68
	38	0.13	-2.44429E-001	-3.02439E-001	-2.73434E-001	7.50218E-006	-7.01920E-006	1.45214E-005	-2.99000E-001	2.87706E-004	7	..........a	-327.68
	39	0.133333	-2.42434E-001	-3.00349E-001	-2.71392E-001	7.53128E-006	-7.03321E-006	1.45645E-005	-2.97000E-001	3.92706E-004	7	..........a	-327.68
	40	0.136667	-2.40394E-001	-2.98314E-001	-2.69354E-001	7.56208E-006	-7.04711E-006	1.46092E-005	-2.95000E-001	3.37706E-004	7	..........a	-327.68
	41	0.14	-2.38519E-001	-2.96309E-001	-2.67414E-001	7.58509E-006	-7.05581E-006	1.46409E-005	-2.93000E-001	3.37706E-004	7	..........a	-327.68
	42	0.143333	-2.36529E-001	-2.94304E-001	-2.65417E-001	7.60329E-006	-7.06581E-006	1.46691E-005	-2.91000E-001	3.67706E-004	7	..........a	-327.68
	43	0.146667	-2.34529E-001	-2.92274E-001	-2.63402E-001	7.62099E-006	-7.07341E-006	1.46944E-005	-2.89000E-001	3.12706E-004	7	..........a	-327.68
	44	0.15	-2.32544E-001	-2.90234E-001	-2.61389E-001	7.64009E-006	-7.07551E-006	1.47156E-005	-2.87000E-001	3.77706E-004	7	..........a	-327.68
	45	0.153333	-2.30544E-001	-2.88229E-001	-2.59387E-001	7.64659E-006	-7.07631E-006	1.47229E-005	-2.85000E-001	3.02706E-004	7	..........a	-327.68
	46	0.156667	-2.28559E-001	-2.86184E-001	-2.57372E-001	7.66100E-006	-7.07561E-006	1.47366E-005	-2.83000E-001	3.42706E-004	7	..........a	-327.68
	47	0.16	-2.26579E-001	-2.84159E-001	-2.55369E-001	7.65690E-006	-7.07071E-006	1.47276E-005	-2.81000E-001	3.12706E-004	7	..........a	-327.68
	48	0.163333	-2.24489E-001	-2.82204E-001	-2.53347E-001	7.65850E-006	-7.06161E-006	1.47201E-005	-2.79000E-001	2.82706E-004	7	..........a	-327.68
	49	0.166667	-2.22584E-001	-2.80214E-001	-2.51399E-001	7.64469E-006	-7.04701E-006	1.46917E-005	-2.77000E-001	3.57706E-004	7	..........a	-327.68
	50	0.17	-2.20534E-001	-2.78224E-001	-2.49379E-001	7.63309E-006	-7.03571E-006	1.46688E-005	-2.75000E-001	3.27706E-004	7	..........a	-327.68
	51	0.173333	-2.18514E-001	-2.76224E-001	-2.47369E-001	7.61529E-006	-7.01140E-006	1.46267E-005	-2.73000E-001	3.42706E-004	7	..........a	-327.68
	52	0.176667	-2.16394E-001	-2.74224E-001	-2.45309E-001	7.59389E-006	-6.99030E-006	1.45842E-005	-2.71000E-001	2.67706E-004	7	..........a	-327.68
	53	0.18	-2.14389E-001	-2.72299E-001	-2.43344E-001	7.57198E-006	-6.96550E-006	1.45375E-005	-2.69000E-001	3.37706E-004	7	..........a	-327.68
	54	0.183333	-2.12354E-001	-2.70284E-001	-2.41319E-001	7.53988E-006	-6.94159E-006	1.44815E-005	-2.67000E-001	3.72706E-004	7	..........a	-327.68
	55	0.186667	-2.10294E-001	-2.68294E-001	-2.39294E-001	7.50828E-006	-6.91119E-006	1.44195E-005	-2.65000E-001	2.77706E-004	7	..........a	-327.68
	56	0.19	-2.08279E-001	-2.66354E-001	-2.37317E-001	7.47217E-006	-6.88429E-006	1.43565E-005	-2.63000E-001	3.02706E-004	7	..........a	-327.68
	57	0.193333	-2.06264E-001	-2.64374E-001	-2.35319E-001	7.43427E-006	-6.85248E-006	1.42867E-005	-2.61000E-001	3.42706E-004	7	..........a	-327.68
	58	0.196667	-2.04274E-001	-2.62409E-001	-2.33342E-001	7.39396E-006	-6.82128E-006	1.42152E-005	-2.59000E-001	3.22706E-004	7	..........a	-327.68
	59	0.2	-2.02199E-001	-2.60334E-001	-2.31267E-001	7.35256E-006	-6.78497E-006	1.41375E-005	-2.57000E-001	3.52706E-004	7	..........a	-327.68
	60	0.203333	-2.00139E-001	-2.58469E-001	-2.29304E-001	7.29715E-006	-6.75227E-006	1.40494E-005	-2.55000E-001	3.22706E-004	7	..........a	-327.68
	61	0.206667	-1.98114E-001	-2.56549E-001	-2.27332E-001	7.26214E-006	-6.72066E-006	1.39828E-005	-2.53000E-001	3.72706E-004	7	..........a	-327.68
	62	0.21	-1.96084E-001	-2.54489E-001	-2.25287E-001	7.20704E-006	-6.68476E-006	1.38918E-005	-2.51000E-001	2.67706E-004	7	..........a	-327.68
	63	0.213333	-1.93959E-001	-2.52574E-001	-2.23267E-001	7.16523E-006	-6.64665E-006	1.38119E-005	-2.49000E-001	2.52706E-004	7	..........a	-327.68
	64	0.216667	-1.91909E-001	-2.50609E-001	-2.21259E-001	7.11792E-006	-6.61085E-006	1.37288E-005	-2.47000E-001	3.12706E-004	7	..........a	-327.68
	65	0.22	-1.89919E-001	-2.48634E-001	-2.19277E-001	7.07462E-006	-6.57894E-006	1.36536E-005	-2.45000E-001	3.72706E-004	7	..........a	-327.68
	66	0.223333	-1.87854E-001	-2.46714E-001	-2.17284E-001	7.02721E-006	-6.54624E-006	1.35734E-005	-2.43000E-001	3.62706E-004	7	..........a	-327.68
	67	0.226667	-1.85834E-001	-2.44734E-001	-2.15284E-001	6.98110E-006	-6.51453E-006	1.34956E-005	-2.41000E-001	3.07706E-004	7	..........a	-327.68
	68	0.23	-1.83724E-001	-2.42799E-001	-2.13262E-001	6.93880E-006	-6.47833E-006	1.34171E-005	-2.39000E-001	3.37706E-004	7	..........a	-327.68
	69	0.233333	-1.81724E-001	-2.40759E-001	-2.11242E-001	6.89729E-006	-6.44513E-006	1.33424E-005	-2.37000E-001	3.07706E-004	7	..........a	-327.68
	70	0.236667	-1.79654E-001	-2.38819E-001	-2.09237E-001	6.85689E-006	-6.41712E-006	1.32740E-005	-2.35000E-001	3.17706E-004	7	..........a	-327.68
	71	0.24	-1.77604E-001	-2.36839E-001	-2.07222E-001	6.81808E-006	-6.39042E-006	1.32085E-005	-2.33000E-001	3.12706E-004	7	..........a	-327.68
	72	0.243333	-1.75589E-001	-2.34819E-001	-2.05204E-001	6.78408E-006	-6.36571E-006	1.31498E-005	-2.31000E-001	3.12706E-004	7	..........a	-327.68
	73	0.246667	-1.73564E-001	-2.32864E-001	-2.03214E-001	6.74487E-006	-6.33551E-006	1.30804E-005	-2.29000E-001	3.32706E-004	7	..........a	-327.68
	74	0.25	-1.71504E-001	-2.30979E-001	-2.01242E-001	6.71837E-006	-6.31141E-006	1.30298E-005	-2.27000E-001	3.57706E-004	7	..........a	-327.68
	75	0.253333	-1.69509E-001	-2.28954E-001	-1.99232E-001	6.67856E-006	-6.29110E-006	1.29697E-005	-2.25000E-001	2.82706E-004	7	..........a	-327.68
	76	0.256667	-1.67484E-001	-2.26984E-001	-1.97234E-001	6.65676E-006	-6.26820E-006	1.29250E-005	-2.23000E-001	3.32706E-004	7	..........a	-327.68
	77	0.26	-1.65434E-001	-2.25014E-001	-1.95224E-001	6.61885E-006	-6.24780E-006	1.28667E-005	-2.21000E-001	3.22706E-004	7	..........a	-327.68
	78	0.263333	-1.63359E-001	-2.23039E-001	-1.93199E-001	6.59925E-006	-6.22580E-006	1.28250E-005	-2.19000E-001	2.72706E-004	7	..........a	-327.68
	79	0.266667	-1.61404E-001	-2.21099E-001	-1.91252E-001	6.57255E-006	-6.20479E-006	1.27773E-005	-2.17000E-001	3.07706E-004	7	..........a	-327.68
	80	0.27	-1.59359E-001	-2.19129E-001	-1.89244E-001	6.55245E-006	-6.19129E-006	1.27437E-005	-2.15000E-001	3.17706E-004	7	..........a	-327.68
	81	0.273333	-1.57359E-001	-2.17114E-001	-1.87237E-001	6.52614E-006	-6.17109E-006	1.26972E-005	-2.13000E-001	2.97706E-004	7	..........a	-327.68
	82	0.276667	-1.55299E-001	-2.15104E-001	-1.85202E-001	6.50794E-006	-6.15799E-006	1.26659E-005	-2.11000E-001	3.02706E-004	7	..........a	-327.68
	83	0.28	-1.53279E-001	-2.13144E-001	-1.83212E-001	6.48774E-006	-6.13688E-006	1.26246E-005	-2.09000E-001	3.57706E-004	7	..........a	-327.68
	84	0.283333	-1.51359E-001	-2.11114E-001	-1.81237E-001	6.47284E-006	-6.12278E-006	1.25956E-005	-2.07000E-001	3.32706E-004	7	..........a	-327.68
	85	0.286667	-1.49304E-001	-2.09164E-001	-1.79234E-001	6.45343E-006	-6.11318E-006	1.25666E-005	-2.05000E-001	3.02706E-004	7	..........a	-327.68
	86	0.29	-1.47304E-001	-2.07174E-001	-1.77239E-001	6.43763E-006	-6.10368E-006	1.25413E-005	-2.03000E-001	3.67706E-004	7	..........a	-327.68
	87	0.293333	-1.45259E-001	-2.05229E-001	-1.75244E-001	6.42573E-006	-6.09418E-006	1.25199E-005	-2.01000E-001	3.07706E-004	7	..........a	-327.68
	88	0.296667	-1.43254E-001	-2.03229E-001	-1.73242E-001	6.40933E-006	-6.08168E-006	1.24910E-005	-1.99000E-001	2.82706E-004	7	..........a	-327.68
	89	0.3	-1.41259E-001	-2.01244E-001	-1.71252E-001	6.40543E-006	-6.07217E-006	1.24776E-005	-1.97000E-001	3.42706E-004	7	..........a	-327.68
	90	0.303333	-1.39149E-001	-1.99254E-001	-1.69202E-001	6.38592E-006	-6.06487E-006	1.24508E-005	-1.95000E-001	3.22706E-004	7	..........a	-327.68
	91	0.306667	-1.37179E-001	-1.97234E-001	-1.67207E-001	6.37982E-006	-6.06087E-006	1.24407E-005	-1.93000E-001	2.87706E-004	7	..........a	-327.68
	92	0.31	-1.35194E-001	-1.95269E-001	-1.65232E-001	6.36732E-006	-6.05137E-006	1.24187E-005	-1.91000E-001	3.12706E-004	7	..........a	-327.68
	93	0.313333	-1.33174E-001	-1.93244E-001	-1.63209E-001	6.36432E-006	-6.04547E-006	1.24098E-005	-1.89000E-001	2.87706E-004	7	..........a	-327.68
	94	0.316667	-1.31199E-001	-1.91279E-001	-1.61239E-001	6.35632E-006	-6.03567E-006	1.23920E-005	-1.87000E-001	3.27706E-004	7	..........a	-327.68
	95	0.32	-1.29184E-001	-1.89229E-001	-1.59207E-001	6.35192E-006	-6.02897E-006	1.23809E-005	-1.85000E-001	3.47706E-004	7	..........a	-327.68
	96	0.323333	-1.27179E-001	-1.87279E-001	-1.57229E-001	6.34432E-006	-6.02477E-006	1.23691E-005	-1.83000E-001	2.72706E-004	7	..........a	-327.68
	97	0.326667	-1.25204E-001	-1.85244E-001	-1.55224E-001	6.34012E-006	-6.02517E-006	1.23653E-005	-1.81000E-001	3.17706E-004	7	..........a	-327.68
	98	0.33	-1.23144E-001	-1.83284E-001	-1.53214E-001	6.33502E-006	-6.01557E-006	1.23506E-005	-1.79000E-001	3.12706E-004	7	..........a	-327.68
	99	0.333333	-1.21184E-001	-1.81304E-001	-1.51244E-001	6.33282E-006	-6.01487E-006	1.23477E-005	-1.77000E-001	3.32706E-004	7	..........a	-327.68
	100	0.336667	-1.19154E-001	-1.79294E-001	-1.49224E-001	6.32872E-006	-6.01037E-006	1.23391E-005	-1.75000E-001	3.47706E-004	7	..........a	-327.68
