EXPLAIN
TAG	SQUARE_WAVE
TITLE	LABEL	Square Wave Voltammetry	Test Identifier
DATE	LABEL	8/25/2020	Date
TIME	LABEL	13:32:13	Time
NOTES	NOTES	1	Notes...
	
PSTAT	PSTAT	REF600-24079	Potentiostat
VINIT	QUANT	-3.50000E-001	Initial E (V)
VFINAL	QUANT	-1.50000E-001	Final E (V)
STEPSIZE	QUANT	2.00000E+000	Step Size (mV)
TIMERRES	QUANT	3.33340E-005	&Timer Resolution
FREQUENCY	QUANT	1.00000E+001	Frequency (Hz)
PULSESIZE	QUANT	2.50000E+001	Pulse Size E (mV)
PULSEON	QUANT	1.00000E-001	Pulse &Time (s)
NOISEREJECT	TOGGLE	F	Noise Rejection
AREA	QUANT	2.00000E-002	Sample Area (cm^2)
IMODE	SELECTOR	1	I/E Range Mode
IRANGE	QUANT	1.00000E-003	Max Current (mA)
EQDELAY	IQUANT	10	Equil. Time (s)
IRCOMP	SELECTOR	0	IRComp
PFCOR	QUANT	5.00000E+001	PF Corr. (ohm)
CYCLES	IQUANT	101	C&ycles (#)
ELECTRODETYPE	SELECTOR	0	Electrode Type
STRIPPING	TOGGLE	F	Used for Stripping
POLARITY	TOGGLE	F	Signal Polarity
LINEFREQ	IQUANT	60	Line Frequency (Hz)
INTPERIOD	QUANT	3.3334E-005	Integration Period (s)
SEQUENCER	TOGGLE	TRUE	Run as Sequence
PSTATMODEL	IQUANT	4	Pstat Model
PSTATSECTION	LABEL	REF600-24079	Pstat Section
PSTATSERIALNO	LABEL	24079	Pstat Serial Number
CTRLMODE	IQUANT	1	Control Mode
ELECTROMETER	IQUANT	0	RE=0 or CS=1
IESTAB	IQUANT	2	I/E Stability
CASPEED	IQUANT	6	Control Amp Speed
CONVENTION	IQUANT	1	Current Convention
ICHRANGE	IQUANT	2	Ich Range
ICHRANGEMODE	TOGGLE	F	Ich Auto Range
ICHOFFSETENABLE	TOGGLE	F	Ich Offset Enable
ICHOFFSET	QUANT	0	Ich Offset (V)
ICHFILTER	IQUANT	2	Ich Filter
VCHRANGE	IQUANT	2	Vch Range
VCHRANGEMODE	TOGGLE	F	Vch Auto Range
VCHOFFSETENABLE	TOGGLE	F	Vch Offset Enable
VCHOFFSET	QUANT	0	Vch Offset (V)
VCHFILTER	IQUANT	2	Vch Filter
ACHRANGE	IQUANT	2	Ach Range
ACHOFFSETENABLE	TOGGLE	F	Ach Offset Enable
ACHOFFSET	QUANT	0	Ach Offset (V)
ACHFILTER	IQUANT	1	Ach Filter
IERANGELOWERLIMIT	IQUANT	1	I/E Range Lower Limit
IERANGEMODE	TOGGLE	F	I/E AutoRange
IERANGE	IQUANT	6	I/E Range
POSFEEDENABLE	TOGGLE	F	Positive Feedback IR Comp
POSFEEDRESISTANCE	QUANT	0	Positive Feedback Resistance (ohm)
ACHSELECT	IQUANT	0	Ach Select
SENSECABLEID	IQUANT	13	Sense Cable ID
PWRCABLEID	IQUANT	13	Power Cable ID
DCCALDATE	LABEL	6/30/2020	DC Calibration Date
ACCALDATE	LABEL	6/30/2020	AC Calibration Date
THERMOSELECT	IQUANT	1	Thermo Select
FRAMEWORKVERSION	LABEL	7.8.2	Framework Version
INSTRUMENTVERSION	LABEL	4.40	Instrument Version
CURVE	TABLE	101
	Pt	T	Vfwd	Vrev	Vstep	Ifwd	Irev	Idif	Sig	Ach	IERange	Over	Temp
	#	s	V	V	V	A	A	A	V	V	#	bits	deg C
	0	0.1	-3.24880E-001	-3.74889E-001	-3.49884E-001	-6.93197E-009	-3.21292E-008	2.51972E-008	-3.75000E-001	4.12873E-004	6	..........a	-327.68
	1	0.2	-3.22848E-001	-3.72891E-001	-3.47870E-001	2.78127E-009	-2.82017E-008	3.09829E-008	-3.73000E-001	3.92373E-004	6	..........a	-327.68
	2	0.3	-3.20897E-001	-3.70772E-001	-3.45834E-001	5.06756E-009	-2.67658E-008	3.18334E-008	-3.71000E-001	3.82039E-004	6	..........a	-327.68
	3	0.4	-3.18865E-001	-3.68892E-001	-3.43879E-001	6.26905E-009	-2.58250E-008	3.20941E-008	-3.69000E-001	3.92539E-004	6	..........a	-327.68
	4	0.5	-3.16766E-001	-3.66909E-001	-3.41838E-001	7.03481E-009	-2.51550E-008	3.21898E-008	-3.67000E-001	3.90873E-004	6	..........a	-327.68
	5	0.6	-3.14860E-001	-3.64879E-001	-3.39870E-001	7.71957E-009	-2.46839E-008	3.24035E-008	-3.65000E-001	3.96206E-004	6	..........a	-327.68
	6	0.7	-3.12912E-001	-3.62794E-001	-3.37853E-001	8.45366E-009	-2.42018E-008	3.26555E-008	-3.63000E-001	3.85039E-004	6	..........a	-327.68
	7	0.8	-3.10879E-001	-3.60863E-001	-3.35871E-001	9.22409E-009	-2.39985E-008	3.32226E-008	-3.61000E-001	3.99373E-004	6	..........a	-327.68
	8	0.9	-3.08787E-001	-3.58874E-001	-3.33830E-001	9.84517E-009	-2.37964E-008	3.36416E-008	-3.59000E-001	3.98373E-004	6	..........a	-327.68
	9	1	-3.06795E-001	-3.56837E-001	-3.31816E-001	1.05729E-008	-2.37034E-008	3.42764E-008	-3.57000E-001	3.91706E-004	6	..........a	-327.68
	10	1.1	-3.04862E-001	-3.54823E-001	-3.29843E-001	1.13587E-008	-2.35444E-008	3.49031E-008	-3.55000E-001	3.92206E-004	6	..........a	-327.68
	11	1.2	-3.02902E-001	-3.52882E-001	-3.27892E-001	1.21811E-008	-2.32570E-008	3.54382E-008	-3.53000E-001	4.06373E-004	6	..........a	-327.68
	12	1.3	-3.00875E-001	-3.50882E-001	-3.25878E-001	1.29079E-008	-2.33507E-008	3.62586E-008	-3.51000E-001	3.92539E-004	6	..........a	-327.68
	13	1.4	-2.98849E-001	-3.48883E-001	-3.23866E-001	1.37657E-008	-2.34311E-008	3.71967E-008	-3.49000E-001	3.91373E-004	6	..........a	-327.68
	14	1.5	-2.96896E-001	-3.46862E-001	-3.21879E-001	1.46738E-008	-2.35901E-008	3.82639E-008	-3.47000E-001	3.89539E-004	6	..........a	-327.68
	15	1.6	-2.94907E-001	-3.44924E-001	-3.19916E-001	1.56519E-008	-2.36951E-008	3.93470E-008	-3.45000E-001	4.02206E-004	6	..........a	-327.68
	16	1.7	-2.92738E-001	-3.42872E-001	-3.17805E-001	1.68067E-008	-2.40761E-008	4.08829E-008	-3.43000E-001	3.94706E-004	6	..........a	-327.68
	17	1.8	-2.90793E-001	-3.40875E-001	-3.15834E-001	1.80462E-008	-2.43268E-008	4.23731E-008	-3.41000E-001	3.89373E-004	6	..........a	-327.68
	18	1.9	-2.88927E-001	-3.38827E-001	-3.13877E-001	1.95691E-008	-2.47772E-008	4.43463E-008	-3.39000E-001	3.89539E-004	6	..........a	-327.68
	19	2	-2.86867E-001	-3.36874E-001	-3.11870E-001	2.07772E-008	-2.52276E-008	4.60048E-008	-3.37000E-001	3.93706E-004	6	..........a	-327.68
	20	2.1	-2.84826E-001	-3.34881E-001	-3.09853E-001	2.21837E-008	-2.60271E-008	4.82108E-008	-3.35000E-001	3.90873E-004	6	..........a	-327.68
	21	2.2	-2.82801E-001	-3.32836E-001	-3.07818E-001	2.37956E-008	-2.65731E-008	5.03687E-008	-3.33000E-001	3.80539E-004	6	..........a	-327.68
	22	2.3	-2.80895E-001	-3.30805E-001	-3.05850E-001	2.57109E-008	-2.73076E-008	5.30184E-008	-3.31000E-001	3.97539E-004	6	..........a	-327.68
	23	2.4	-2.78871E-001	-3.28873E-001	-3.03872E-001	2.73614E-008	-2.81433E-008	5.55047E-008	-3.29000E-001	3.95039E-004	6	..........a	-327.68
	24	2.5	-2.76857E-001	-3.26887E-001	-3.01872E-001	2.91750E-008	-2.92655E-008	5.84404E-008	-3.27000E-001	3.89039E-004	6	..........a	-327.68
	25	2.6	-2.74837E-001	-3.24875E-001	-2.99856E-001	3.10285E-008	-3.03543E-008	6.13828E-008	-3.25000E-001	3.95873E-004	6	..........a	-327.68
	26	2.7	-2.72890E-001	-3.22854E-001	-2.97872E-001	3.30358E-008	-3.17961E-008	6.48319E-008	-3.23000E-001	3.87706E-004	6	..........a	-327.68
	27	2.8	-2.70900E-001	-3.20890E-001	-2.95895E-001	3.50464E-008	-3.29396E-008	6.79860E-008	-3.21000E-001	3.94039E-004	6	..........a	-327.68
	28	2.9	-2.68882E-001	-3.18876E-001	-2.93879E-001	3.71690E-008	-3.44041E-008	7.15731E-008	-3.19000E-001	3.85539E-004	6	..........a	-327.68
	29	3	-2.66776E-001	-3.16778E-001	-2.91777E-001	3.92982E-008	-3.61000E-008	7.53983E-008	-3.17000E-001	3.83206E-004	6	..........a	-327.68
	30	3.1	-2.64897E-001	-3.14849E-001	-2.89873E-001	4.10898E-008	-3.78082E-008	7.88980E-008	-3.15000E-001	4.01539E-004	6	..........a	-327.68
	31	3.2	-2.62903E-001	-3.12907E-001	-2.87905E-001	4.33061E-008	-3.96928E-008	8.29989E-008	-3.13000E-001	4.03206E-004	6	..........a	-327.68
	32	3.3	-2.60799E-001	-3.10870E-001	-2.85834E-001	4.49160E-008	-4.16964E-008	8.66124E-008	-3.11000E-001	4.01539E-004	6	..........a	-327.68
	33	3.4	-2.58799E-001	-3.08861E-001	-2.83830E-001	4.68405E-008	-4.35360E-008	9.03765E-008	-3.09000E-001	4.03206E-004	6	..........a	-327.68
	34	3.5	-2.56866E-001	-3.06818E-001	-2.81842E-001	4.82744E-008	-4.53715E-008	9.36459E-008	-3.07000E-001	3.86039E-004	6	..........a	-327.68
	35	3.6	-2.54886E-001	-3.04887E-001	-2.79886E-001	4.97052E-008	-4.74291E-008	9.71344E-008	-3.05000E-001	3.88706E-004	6	..........a	-327.68
	36	3.7	-2.52834E-001	-3.02892E-001	-2.77863E-001	5.06514E-008	-4.94360E-008	1.00087E-007	-3.03000E-001	3.95206E-004	6	..........a	-327.68
	37	3.8	-2.50828E-001	-3.00899E-001	-2.75863E-001	5.18642E-008	-5.12843E-008	1.03148E-007	-3.01000E-001	4.09539E-004	6	..........a	-327.68
	38	3.9	-2.48886E-001	-2.98849E-001	-2.73867E-001	5.26333E-008	-5.29912E-008	1.05624E-007	-2.99000E-001	3.83373E-004	6	..........a	-327.68
	39	4	-2.46883E-001	-2.96889E-001	-2.71886E-001	5.30657E-008	-5.46280E-008	1.07694E-007	-2.97000E-001	4.10706E-004	6	..........a	-327.68
	40	4.1	-2.44881E-001	-2.94858E-001	-2.69869E-001	5.31657E-008	-5.63006E-008	1.09466E-007	-2.95000E-001	4.03873E-004	6	..........a	-327.68
	41	4.2	-2.42758E-001	-2.92759E-001	-2.67758E-001	5.33554E-008	-5.79291E-008	1.11284E-007	-2.93000E-001	3.91873E-004	6	..........a	-327.68
	42	4.3	-2.40873E-001	-2.90786E-001	-2.65830E-001	5.29303E-008	-5.90946E-008	1.12025E-007	-2.91000E-001	4.02206E-004	6	..........a	-327.68
	43	4.4	-2.38880E-001	-2.88924E-001	-2.63902E-001	5.25856E-008	-6.03421E-008	1.12928E-007	-2.89000E-001	4.02539E-004	6	..........a	-327.68
	44	4.5	-2.36871E-001	-2.86863E-001	-2.61867E-001	5.19335E-008	-6.08468E-008	1.12780E-007	-2.87000E-001	4.10539E-004	6	..........a	-327.68
	45	4.6	-2.34783E-001	-2.84836E-001	-2.59810E-001	5.12941E-008	-6.15873E-008	1.12881E-007	-2.85000E-001	3.95539E-004	6	..........a	-327.68
	46	4.7	-2.32831E-001	-2.82800E-001	-2.57815E-001	4.99919E-008	-6.18800E-008	1.11872E-007	-2.83000E-001	4.02039E-004	6	..........a	-327.68
	47	4.8	-2.30860E-001	-2.80901E-001	-2.55881E-001	4.88881E-008	-6.17856E-008	1.10674E-007	-2.81000E-001	4.16206E-004	6	..........a	-327.68
	48	4.9	-2.28816E-001	-2.78853E-001	-2.53834E-001	4.75676E-008	-6.15893E-008	1.09157E-007	-2.79000E-001	4.01206E-004	6	..........a	-327.68
	49	5	-2.26795E-001	-2.76868E-001	-2.51831E-001	4.62745E-008	-6.09692E-008	1.07244E-007	-2.77000E-001	4.05206E-004	6	..........a	-327.68
	50	5.1	-2.24850E-001	-2.74834E-001	-2.49842E-001	4.48536E-008	-6.02681E-008	1.05122E-007	-2.75000E-001	3.97873E-004	6	..........a	-327.68
	51	5.2	-2.22874E-001	-2.72869E-001	-2.47871E-001	4.31584E-008	-5.90719E-008	1.02230E-007	-2.73000E-001	4.02539E-004	6	..........a	-327.68
	52	5.3	-2.20861E-001	-2.70852E-001	-2.45856E-001	4.18099E-008	-5.77021E-008	9.95120E-008	-2.71000E-001	4.02206E-004	6	..........a	-327.68
	53	5.4	-2.18856E-001	-2.68864E-001	-2.43860E-001	4.02010E-008	-5.61286E-008	9.63296E-008	-2.69000E-001	4.08873E-004	6	..........a	-327.68
	54	5.5	-2.16904E-001	-2.66780E-001	-2.41842E-001	3.88009E-008	-5.43993E-008	9.32002E-008	-2.67000E-001	3.95539E-004	6	..........a	-327.68
	55	5.6	-2.14853E-001	-2.64892E-001	-2.39873E-001	3.71486E-008	-5.26038E-008	8.97524E-008	-2.65000E-001	4.04206E-004	6	..........a	-327.68
	56	5.7	-2.12860E-001	-2.62904E-001	-2.37882E-001	3.57885E-008	-5.07405E-008	8.65290E-008	-2.63000E-001	4.08039E-004	6	..........a	-327.68
	57	5.8	-2.10822E-001	-2.60851E-001	-2.35836E-001	3.40573E-008	-4.84853E-008	8.25425E-008	-2.61000E-001	3.95539E-004	6	..........a	-327.68
	58	5.9	-2.08849E-001	-2.58807E-001	-2.33828E-001	3.27558E-008	-4.61270E-008	7.88827E-008	-2.59000E-001	3.89039E-004	6	..........a	-327.68
	59	6	-2.06876E-001	-2.56868E-001	-2.31872E-001	3.15589E-008	-4.42487E-008	7.58076E-008	-2.57000E-001	3.86873E-004	6	..........a	-327.68
	60	6.1	-2.04817E-001	-2.54882E-001	-2.29850E-001	3.03304E-008	-4.19558E-008	7.22862E-008	-2.55000E-001	3.88039E-004	6	..........a	-327.68
	61	6.2	-2.02799E-001	-2.52828E-001	-2.27814E-001	2.89429E-008	-3.97351E-008	6.86781E-008	-2.53000E-001	3.97039E-004	6	..........a	-327.68
	62	6.3	-2.00864E-001	-2.50830E-001	-2.25847E-001	2.78285E-008	-3.73772E-008	6.52056E-008	-2.51000E-001	3.89039E-004	6	..........a	-327.68
	63	6.4	-1.98880E-001	-2.48888E-001	-2.23884E-001	2.66200E-008	-3.51492E-008	6.17692E-008	-2.49000E-001	3.89873E-004	6	..........a	-327.68
	64	6.5	-1.96866E-001	-2.46889E-001	-2.21878E-001	2.54908E-008	-3.33123E-008	5.88031E-008	-2.47000E-001	3.90706E-004	6	..........a	-327.68
	65	6.6	-1.94839E-001	-2.44877E-001	-2.19858E-001	2.46197E-008	-3.10627E-008	5.56824E-008	-2.45000E-001	3.94873E-004	6	..........a	-327.68
	66	6.7	-1.92886E-001	-2.42771E-001	-2.17829E-001	2.36999E-008	-2.92318E-008	5.29317E-008	-2.43000E-001	3.73373E-004	6	..........a	-327.68
	67	6.8	-1.90871E-001	-2.40880E-001	-2.15876E-001	2.28358E-008	-2.75483E-008	5.03841E-008	-2.41000E-001	3.98706E-004	6	..........a	-327.68
	68	6.9	-1.88779E-001	-2.38902E-001	-2.13841E-001	2.19387E-008	-2.58044E-008	4.77431E-008	-2.39000E-001	3.86373E-004	6	..........a	-327.68
	69	7	-1.86799E-001	-2.36868E-001	-2.11834E-001	2.13326E-008	-2.44455E-008	4.57782E-008	-2.37000E-001	3.75706E-004	6	..........a	-327.68
	70	7.1	-1.84893E-001	-2.34801E-001	-2.09847E-001	2.07376E-008	-2.28620E-008	4.35995E-008	-2.35000E-001	3.90706E-004	6	..........a	-327.68
	71	7.2	-1.82845E-001	-2.32858E-001	-2.07851E-001	2.00675E-008	-2.16352E-008	4.17026E-008	-2.33000E-001	3.93039E-004	6	..........a	-327.68
	72	7.3	-1.80807E-001	-2.30859E-001	-2.05833E-001	1.94754E-008	-2.05797E-008	4.00551E-008	-2.31000E-001	3.82039E-004	6	..........a	-327.68
	73	7.4	-1.78792E-001	-2.28817E-001	-2.03805E-001	1.89773E-008	-1.93552E-008	3.83325E-008	-2.29000E-001	3.83206E-004	6	..........a	-327.68
	74	7.5	-1.76837E-001	-2.26804E-001	-2.01821E-001	1.84599E-008	-1.82187E-008	3.66787E-008	-2.27000E-001	4.02706E-004	6	..........a	-327.68
	75	7.6	-1.74869E-001	-2.24867E-001	-1.99868E-001	1.82716E-008	-1.75550E-008	3.58266E-008	-2.25000E-001	3.95706E-004	6	..........a	-327.68
	76	7.7	-1.72840E-001	-2.22869E-001	-1.97854E-001	1.79419E-008	-1.67179E-008	3.46597E-008	-2.23000E-001	3.91039E-004	6	..........a	-327.68
	77	7.8	-1.70822E-001	-2.20864E-001	-1.95843E-001	1.76755E-008	-1.57634E-008	3.34389E-008	-2.21000E-001	3.92706E-004	6	..........a	-327.68
	78	7.9	-1.68866E-001	-2.18854E-001	-1.93860E-001	1.72448E-008	-1.50103E-008	3.22551E-008	-2.19000E-001	3.87539E-004	6	..........a	-327.68
	79	8	-1.66891E-001	-2.16883E-001	-1.91887E-001	1.68587E-008	-1.46873E-008	3.15460E-008	-2.17000E-001	3.99373E-004	6	..........a	-327.68
	80	8.1	-1.64713E-001	-2.14850E-001	-1.89781E-001	1.66200E-008	-1.39579E-008	3.05779E-008	-2.15000E-001	4.05706E-004	6	..........a	-327.68
	81	8.2	-1.62771E-001	-2.12837E-001	-1.87804E-001	1.64210E-008	-1.33264E-008	2.97475E-008	-2.13000E-001	4.00373E-004	6	..........a	-327.68
	82	8.3	-1.60902E-001	-2.10818E-001	-1.85860E-001	1.62026E-008	-1.29301E-008	2.91327E-008	-2.11000E-001	4.04873E-004	6	..........a	-327.68
	83	8.4	-1.58855E-001	-2.08859E-001	-1.83857E-001	1.60320E-008	-1.27134E-008	2.87453E-008	-2.09000E-001	3.79706E-004	6	..........a	-327.68
	84	8.5	-1.56801E-001	-2.06880E-001	-1.81841E-001	1.59716E-008	-1.21636E-008	2.81352E-008	-2.07000E-001	3.91706E-004	6	..........a	-327.68
	85	8.6	-1.54774E-001	-2.04787E-001	-1.79780E-001	1.57856E-008	-1.18509E-008	2.76365E-008	-2.05000E-001	3.86039E-004	6	..........a	-327.68
	86	8.7	-1.52880E-001	-2.02797E-001	-1.77839E-001	1.58089E-008	-1.13949E-008	2.72038E-008	-2.03000E-001	3.81706E-004	6	..........a	-327.68
	87	8.8	-1.50881E-001	-2.00883E-001	-1.75882E-001	1.57729E-008	-1.10228E-008	2.67957E-008	-2.01000E-001	3.83373E-004	6	..........a	-327.68
	88	8.9	-1.48838E-001	-1.98887E-001	-1.73862E-001	1.55936E-008	-1.10298E-008	2.66234E-008	-1.99000E-001	3.90039E-004	6	..........a	-327.68
	89	9	-1.46820E-001	-1.96854E-001	-1.71837E-001	1.56219E-008	-1.07481E-008	2.63700E-008	-1.97000E-001	3.93039E-004	6	..........a	-327.68
	90	9.1	-1.44875E-001	-1.94851E-001	-1.69863E-001	1.55422E-008	-1.05184E-008	2.60606E-008	-1.95000E-001	3.89873E-004	6	..........a	-327.68
	91	9.2	-1.42895E-001	-1.92880E-001	-1.67888E-001	1.54782E-008	-1.03004E-008	2.57786E-008	-1.93000E-001	4.03873E-004	6	..........a	-327.68
	92	9.3	-1.40881E-001	-1.90878E-001	-1.65879E-001	1.52929E-008	-1.00924E-008	2.53852E-008	-1.91000E-001	4.00039E-004	6	..........a	-327.68
	93	9.4	-1.38741E-001	-1.88741E-001	-1.63741E-001	1.52405E-008	-9.84834E-009	2.50889E-008	-1.89000E-001	3.95873E-004	6	..........a	-327.68
	94	9.5	-1.36848E-001	-1.86807E-001	-1.61827E-001	1.53589E-008	-9.73832E-009	2.50972E-008	-1.87000E-001	3.78706E-004	6	..........a	-327.68
	95	9.6	-1.34897E-001	-1.84878E-001	-1.59887E-001	1.53359E-008	-9.58097E-009	2.49168E-008	-1.85000E-001	3.92873E-004	6	..........a	-327.68
	96	9.7	-1.32762E-001	-1.82848E-001	-1.57805E-001	1.52589E-008	-9.65598E-009	2.49148E-008	-1.83000E-001	3.93539E-004	6	..........a	-327.68
	97	9.8	-1.30780E-001	-1.80803E-001	-1.55791E-001	1.52812E-008	-9.50463E-009	2.47858E-008	-1.81000E-001	3.66373E-004	6	..........a	-327.68
	98	9.9	-1.28820E-001	-1.78801E-001	-1.53810E-001	1.53585E-008	-9.31327E-009	2.46718E-008	-1.79000E-001	3.87706E-004	6	..........a	-327.68
	99	10	-1.26876E-001	-1.76846E-001	-1.51861E-001	1.54719E-008	-9.35927E-009	2.48312E-008	-1.77000E-001	3.85373E-004	6	..........a	-327.68
	100	10.1	-1.24788E-001	-1.74870E-001	-1.49829E-001	1.51999E-008	-9.06990E-009	2.42698E-008	-1.75000E-001	3.85039E-004	6	..........a	-327.68
