EXPLAIN
TAG	SQUARE_WAVE
TITLE	LABEL	Square Wave Voltammetry	Test Identifier
DATE	LABEL	8/31/2020	Date
TIME	LABEL	12:50:04	Time
NOTES	NOTES	1	Notes...
	
PSTAT	PSTAT	REF600-24079	Potentiostat
VINIT	QUANT	-3.50000E-001	Initial E (V)
VFINAL	QUANT	-1.50000E-001	Final E (V)
STEPSIZE	QUANT	2.00000E+000	Step Size (mV)
TIMERRES	QUANT	3.33340E-005	&Timer Resolution
FREQUENCY	QUANT	1.00000E+001	Frequency (Hz)
PULSESIZE	QUANT	2.50000E+001	Pulse Size E (mV)
PULSEON	QUANT	1.00000E-001	Pulse &Time (s)
NOISEREJECT	TOGGLE	F	Noise Rejection
AREA	QUANT	2.00000E-002	Sample Area (cm^2)
IMODE	SELECTOR	1	I/E Range Mode
IRANGE	QUANT	1.00000E-003	Max Current (mA)
EQDELAY	IQUANT	10	Equil. Time (s)
IRCOMP	SELECTOR	0	IRComp
PFCOR	QUANT	5.00000E+001	PF Corr. (ohm)
CYCLES	IQUANT	101	C&ycles (#)
ELECTRODETYPE	SELECTOR	0	Electrode Type
STRIPPING	TOGGLE	F	Used for Stripping
POLARITY	TOGGLE	F	Signal Polarity
LINEFREQ	IQUANT	60	Line Frequency (Hz)
INTPERIOD	QUANT	3.3334E-005	Integration Period (s)
SEQUENCER	TOGGLE	TRUE	Run as Sequence
PSTATMODEL	IQUANT	4	Pstat Model
PSTATSECTION	LABEL	REF600-24079	Pstat Section
PSTATSERIALNO	LABEL	24079	Pstat Serial Number
CTRLMODE	IQUANT	1	Control Mode
ELECTROMETER	IQUANT	0	RE=0 or CS=1
IESTAB	IQUANT	2	I/E Stability
CASPEED	IQUANT	6	Control Amp Speed
CONVENTION	IQUANT	1	Current Convention
ICHRANGE	IQUANT	2	Ich Range
ICHRANGEMODE	TOGGLE	F	Ich Auto Range
ICHOFFSETENABLE	TOGGLE	F	Ich Offset Enable
ICHOFFSET	QUANT	0	Ich Offset (V)
ICHFILTER	IQUANT	2	Ich Filter
VCHRANGE	IQUANT	2	Vch Range
VCHRANGEMODE	TOGGLE	F	Vch Auto Range
VCHOFFSETENABLE	TOGGLE	F	Vch Offset Enable
VCHOFFSET	QUANT	0	Vch Offset (V)
VCHFILTER	IQUANT	2	Vch Filter
ACHRANGE	IQUANT	2	Ach Range
ACHOFFSETENABLE	TOGGLE	F	Ach Offset Enable
ACHOFFSET	QUANT	0	Ach Offset (V)
ACHFILTER	IQUANT	1	Ach Filter
IERANGELOWERLIMIT	IQUANT	1	I/E Range Lower Limit
IERANGEMODE	TOGGLE	F	I/E AutoRange
IERANGE	IQUANT	6	I/E Range
POSFEEDENABLE	TOGGLE	F	Positive Feedback IR Comp
POSFEEDRESISTANCE	QUANT	0	Positive Feedback Resistance (ohm)
ACHSELECT	IQUANT	0	Ach Select
SENSECABLEID	IQUANT	13	Sense Cable ID
PWRCABLEID	IQUANT	13	Power Cable ID
DCCALDATE	LABEL	6/30/2020	DC Calibration Date
ACCALDATE	LABEL	6/30/2020	AC Calibration Date
THERMOSELECT	IQUANT	1	Thermo Select
FRAMEWORKVERSION	LABEL	7.8.2	Framework Version
INSTRUMENTVERSION	LABEL	4.40	Instrument Version
CURVE	TABLE	101
	Pt	T	Vfwd	Vrev	Vstep	Ifwd	Irev	Idif	Sig	Ach	IERange	Over	Temp
	#	s	V	V	V	A	A	A	V	V	#	bits	deg C
	0	0.1	-3.24825E-001	-3.74867E-001	-3.49846E-001	-1.02381E-008	-4.31516E-008	3.29135E-008	-3.75000E-001	3.30373E-004	6	..........a	-327.68
	1	0.2	-3.22847E-001	-3.72851E-001	-3.47849E-001	3.15332E-009	-3.76795E-008	4.08329E-008	-3.73000E-001	3.22373E-004	6	..........a	-327.68
	2	0.3	-3.20869E-001	-3.70768E-001	-3.45818E-001	6.01302E-009	-3.55786E-008	4.15916E-008	-3.71000E-001	3.07039E-004	6	..........a	-327.68
	3	0.4	-3.18868E-001	-3.68878E-001	-3.43873E-001	7.64222E-009	-3.45791E-008	4.22214E-008	-3.69000E-001	3.04206E-004	6	..........a	-327.68
	4	0.5	-3.16720E-001	-3.66903E-001	-3.41811E-001	8.89071E-009	-3.38557E-008	4.27464E-008	-3.67000E-001	3.00539E-004	6	..........a	-327.68
	5	0.6	-3.14847E-001	-3.64832E-001	-3.39839E-001	9.81683E-009	-3.31440E-008	4.29608E-008	-3.65000E-001	3.09206E-004	6	..........a	-327.68
	6	0.7	-3.12851E-001	-3.62822E-001	-3.37836E-001	1.07159E-008	-3.25982E-008	4.33142E-008	-3.63000E-001	3.14539E-004	6	..........a	-327.68
	7	0.8	-3.10860E-001	-3.60857E-001	-3.35859E-001	1.17184E-008	-3.22115E-008	4.39299E-008	-3.61000E-001	3.00873E-004	6	..........a	-327.68
	8	0.9	-3.08817E-001	-3.58873E-001	-3.33845E-001	1.25312E-008	-3.17908E-008	4.43220E-008	-3.59000E-001	3.12873E-004	6	..........a	-327.68
	9	1	-3.06825E-001	-3.56823E-001	-3.31824E-001	1.35456E-008	-3.16398E-008	4.51854E-008	-3.57000E-001	3.02873E-004	6	..........a	-327.68
	10	1.1	-3.04840E-001	-3.54829E-001	-3.29834E-001	1.47088E-008	-3.14884E-008	4.61972E-008	-3.55000E-001	3.12539E-004	6	..........a	-327.68
	11	1.2	-3.02868E-001	-3.52867E-001	-3.27867E-001	1.55996E-008	-3.14784E-008	4.70780E-008	-3.53000E-001	3.06706E-004	6	..........a	-327.68
	12	1.3	-3.00839E-001	-3.50876E-001	-3.25857E-001	1.68571E-008	-3.14644E-008	4.83215E-008	-3.51000E-001	3.16706E-004	6	..........a	-327.68
	13	1.4	-2.98837E-001	-3.48865E-001	-3.23851E-001	1.78249E-008	-3.14771E-008	4.93019E-008	-3.49000E-001	3.19373E-004	6	..........a	-327.68
	14	1.5	-2.96875E-001	-3.46859E-001	-3.21867E-001	1.91197E-008	-3.18301E-008	5.09498E-008	-3.47000E-001	3.12873E-004	6	..........a	-327.68
	15	1.6	-2.94883E-001	-3.44881E-001	-3.19882E-001	2.05872E-008	-3.21695E-008	5.27567E-008	-3.45000E-001	3.16039E-004	6	..........a	-327.68
	16	1.7	-2.92728E-001	-3.42890E-001	-3.17809E-001	2.20927E-008	-3.24782E-008	5.45709E-008	-3.43000E-001	3.14539E-004	6	..........a	-327.68
	17	1.8	-2.90808E-001	-3.40844E-001	-3.15826E-001	2.37049E-008	-3.29133E-008	5.66182E-008	-3.41000E-001	3.11873E-004	6	..........a	-327.68
	18	1.9	-2.88897E-001	-3.38848E-001	-3.13872E-001	2.55378E-008	-3.37070E-008	5.92449E-008	-3.39000E-001	3.18873E-004	6	..........a	-327.68
	19	2	-2.86867E-001	-3.36858E-001	-3.11862E-001	2.73151E-008	-3.43685E-008	6.16835E-008	-3.37000E-001	3.25206E-004	6	..........a	-327.68
	20	2.1	-2.84806E-001	-3.34873E-001	-3.09839E-001	2.93120E-008	-3.51012E-008	6.44132E-008	-3.35000E-001	3.19206E-004	6	..........a	-327.68
	21	2.2	-2.82807E-001	-3.32808E-001	-3.07808E-001	3.16363E-008	-3.61780E-008	6.78143E-008	-3.33000E-001	3.17039E-004	6	..........a	-327.68
	22	2.3	-2.80876E-001	-3.30810E-001	-3.05843E-001	3.36639E-008	-3.74749E-008	7.11387E-008	-3.31000E-001	3.17039E-004	6	..........a	-327.68
	23	2.4	-2.78866E-001	-3.28863E-001	-3.03864E-001	3.60812E-008	-3.86657E-008	7.47468E-008	-3.29000E-001	3.27873E-004	6	..........a	-327.68
	24	2.5	-2.76851E-001	-3.26874E-001	-3.01862E-001	3.85125E-008	-4.03439E-008	7.88564E-008	-3.27000E-001	3.23039E-004	6	..........a	-327.68
	25	2.6	-2.74839E-001	-3.24845E-001	-2.99842E-001	4.08998E-008	-4.19644E-008	8.28642E-008	-3.25000E-001	3.12039E-004	6	..........a	-327.68
	26	2.7	-2.72861E-001	-3.22850E-001	-2.97855E-001	4.34414E-008	-4.37063E-008	8.71478E-008	-3.23000E-001	3.22039E-004	6	..........a	-327.68
	27	2.8	-2.70869E-001	-3.20869E-001	-2.95869E-001	4.63545E-008	-4.57482E-008	9.21027E-008	-3.21000E-001	3.14373E-004	6	..........a	-327.68
	28	2.9	-2.68849E-001	-3.18877E-001	-2.93863E-001	4.88108E-008	-4.79349E-008	9.67456E-008	-3.19000E-001	3.17039E-004	6	..........a	-327.68
	29	3	-2.66792E-001	-3.16781E-001	-2.91786E-001	5.12628E-008	-5.01201E-008	1.01383E-007	-3.17000E-001	3.21039E-004	6	..........a	-327.68
	30	3.1	-2.64875E-001	-3.14869E-001	-2.89872E-001	5.39891E-008	-5.25291E-008	1.06518E-007	-3.15000E-001	3.23706E-004	6	..........a	-327.68
	31	3.2	-2.62869E-001	-3.12874E-001	-2.87871E-001	5.63147E-008	-5.50468E-008	1.11362E-007	-3.13000E-001	3.16539E-004	6	..........a	-327.68
	32	3.3	-2.60780E-001	-3.10868E-001	-2.85824E-001	5.86087E-008	-5.76801E-008	1.16289E-007	-3.11000E-001	3.31039E-004	6	..........a	-327.68
	33	3.4	-2.58800E-001	-3.08862E-001	-2.83831E-001	6.06210E-008	-6.03604E-008	1.20981E-007	-3.09000E-001	3.16206E-004	6	..........a	-327.68
	34	3.5	-2.56835E-001	-3.06851E-001	-2.81843E-001	6.25985E-008	-6.34092E-008	1.26008E-007	-3.07000E-001	3.22373E-004	6	..........a	-327.68
	35	3.6	-2.54883E-001	-3.04896E-001	-2.79890E-001	6.38890E-008	-6.59515E-008	1.29841E-007	-3.05000E-001	3.09373E-004	6	..........a	-327.68
	36	3.7	-2.52806E-001	-3.02885E-001	-2.77845E-001	6.50959E-008	-6.86121E-008	1.33708E-007	-3.03000E-001	3.18206E-004	6	..........a	-327.68
	37	3.8	-2.50817E-001	-3.00877E-001	-2.75847E-001	6.61720E-008	-7.12712E-008	1.37443E-007	-3.01000E-001	3.17539E-004	6	..........a	-327.68
	38	3.9	-2.48854E-001	-2.98857E-001	-2.73855E-001	6.68584E-008	-7.39352E-008	1.40794E-007	-2.99000E-001	3.16039E-004	6	..........a	-327.68
	39	4	-2.46856E-001	-2.96888E-001	-2.71872E-001	6.73951E-008	-7.60921E-008	1.43487E-007	-2.97000E-001	3.09706E-004	6	..........a	-327.68
	40	4.1	-2.44836E-001	-2.94872E-001	-2.69854E-001	6.73308E-008	-7.80744E-008	1.45405E-007	-2.95000E-001	3.12539E-004	6	..........a	-327.68
	41	4.2	-2.42756E-001	-2.92762E-001	-2.67759E-001	6.71155E-008	-7.99303E-008	1.47046E-007	-2.93000E-001	3.05539E-004	6	..........a	-327.68
	42	4.3	-2.40831E-001	-2.90827E-001	-2.65829E-001	6.65757E-008	-8.13388E-008	1.47914E-007	-2.91000E-001	3.10039E-004	6	..........a	-327.68
	43	4.4	-2.38878E-001	-2.88906E-001	-2.63892E-001	6.58343E-008	-8.28396E-008	1.48674E-007	-2.89000E-001	3.17539E-004	6	..........a	-327.68
	44	4.5	-2.36795E-001	-2.86874E-001	-2.61835E-001	6.49918E-008	-8.33964E-008	1.48388E-007	-2.87000E-001	3.04206E-004	6	..........a	-327.68
	45	4.6	-2.34789E-001	-2.84818E-001	-2.59804E-001	6.35563E-008	-8.39248E-008	1.47481E-007	-2.85000E-001	3.07206E-004	6	..........a	-327.68
	46	4.7	-2.32828E-001	-2.82816E-001	-2.57822E-001	6.21542E-008	-8.39264E-008	1.46081E-007	-2.83000E-001	3.07873E-004	6	..........a	-327.68
	47	4.8	-2.30845E-001	-2.80889E-001	-2.55867E-001	6.06193E-008	-8.36027E-008	1.44222E-007	-2.81000E-001	3.03706E-004	6	..........a	-327.68
	48	4.9	-2.28773E-001	-2.78872E-001	-2.53823E-001	5.88891E-008	-8.28619E-008	1.41751E-007	-2.79000E-001	3.10706E-004	6	..........a	-327.68
	49	5	-2.26804E-001	-2.76865E-001	-2.51835E-001	5.70535E-008	-8.17251E-008	1.38779E-007	-2.77000E-001	3.06039E-004	6	..........a	-327.68
	50	5.1	-2.24852E-001	-2.74853E-001	-2.49852E-001	5.52723E-008	-8.02436E-008	1.35516E-007	-2.75000E-001	3.07873E-004	6	..........a	-327.68
	51	5.2	-2.22853E-001	-2.72875E-001	-2.47864E-001	5.33970E-008	-7.82197E-008	1.31617E-007	-2.73000E-001	3.12039E-004	6	..........a	-327.68
	52	5.3	-2.20847E-001	-2.70862E-001	-2.45854E-001	5.14378E-008	-7.62685E-008	1.27706E-007	-2.71000E-001	3.14206E-004	6	..........a	-327.68
	53	5.4	-2.18842E-001	-2.68863E-001	-2.43852E-001	4.94119E-008	-7.37975E-008	1.23209E-007	-2.69000E-001	3.21873E-004	6	..........a	-327.68
	54	5.5	-2.16879E-001	-2.66807E-001	-2.41843E-001	4.74823E-008	-7.11481E-008	1.18630E-007	-2.67000E-001	3.37039E-004	6	..........a	-327.68
	55	5.6	-2.14858E-001	-2.64901E-001	-2.39879E-001	4.56574E-008	-6.84948E-008	1.14152E-007	-2.65000E-001	3.27539E-004	6	..........a	-327.68
	56	5.7	-2.12802E-001	-2.62849E-001	-2.37825E-001	4.38682E-008	-6.53197E-008	1.09188E-007	-2.63000E-001	3.32373E-004	6	..........a	-327.68
	57	5.8	-2.10828E-001	-2.60818E-001	-2.35823E-001	4.21019E-008	-6.22760E-008	1.04378E-007	-2.61000E-001	3.31873E-004	6	..........a	-327.68
	58	5.9	-2.08856E-001	-2.58824E-001	-2.33840E-001	4.02940E-008	-5.92640E-008	9.95580E-008	-2.59000E-001	3.22539E-004	6	..........a	-327.68
	59	6	-2.06862E-001	-2.56865E-001	-2.31863E-001	3.88605E-008	-5.62329E-008	9.50934E-008	-2.57000E-001	3.42206E-004	6	..........a	-327.68
	60	6.1	-2.04788E-001	-2.54881E-001	-2.29835E-001	3.71933E-008	-5.30545E-008	9.02478E-008	-2.55000E-001	3.18206E-004	6	..........a	-327.68
	61	6.2	-2.02812E-001	-2.52854E-001	-2.27833E-001	3.58358E-008	-5.02091E-008	8.60449E-008	-2.53000E-001	3.23373E-004	6	..........a	-327.68
	62	6.3	-2.00850E-001	-2.50840E-001	-2.25845E-001	3.45196E-008	-4.72134E-008	8.17331E-008	-2.51000E-001	3.14373E-004	6	..........a	-327.68
	63	6.4	-1.98864E-001	-2.48870E-001	-2.23867E-001	3.32688E-008	-4.44104E-008	7.76792E-008	-2.49000E-001	3.15373E-004	6	..........a	-327.68
	64	6.5	-1.96843E-001	-2.46871E-001	-2.21857E-001	3.21107E-008	-4.18394E-008	7.39501E-008	-2.47000E-001	3.33539E-004	6	..........a	-327.68
	65	6.6	-1.94834E-001	-2.44839E-001	-2.19837E-001	3.09779E-008	-3.92277E-008	7.02056E-008	-2.45000E-001	3.14373E-004	6	..........a	-327.68
	66	6.7	-1.92871E-001	-2.42776E-001	-2.17823E-001	3.00244E-008	-3.67571E-008	6.67815E-008	-2.43000E-001	3.16706E-004	6	..........a	-327.68
	67	6.8	-1.90898E-001	-2.40854E-001	-2.15876E-001	2.92013E-008	-3.44391E-008	6.36404E-008	-2.41000E-001	3.15039E-004	6	..........a	-327.68
	68	6.9	-1.88735E-001	-2.38894E-001	-2.13814E-001	2.82895E-008	-3.22819E-008	6.05714E-008	-2.39000E-001	3.19873E-004	6	..........a	-327.68
	69	7	-1.86825E-001	-2.36849E-001	-2.11837E-001	2.75488E-008	-3.05463E-008	5.80951E-008	-2.37000E-001	3.07039E-004	6	..........a	-327.68
	70	7.1	-1.84874E-001	-2.34824E-001	-2.09849E-001	2.67303E-008	-2.86841E-008	5.54144E-008	-2.35000E-001	3.12873E-004	6	..........a	-327.68
	71	7.2	-1.82848E-001	-2.32848E-001	-2.07848E-001	2.62883E-008	-2.70255E-008	5.33138E-008	-2.33000E-001	3.17039E-004	6	..........a	-327.68
	72	7.3	-1.80801E-001	-2.30868E-001	-2.05834E-001	2.56999E-008	-2.54840E-008	5.11838E-008	-2.31000E-001	3.22373E-004	6	..........a	-327.68
	73	7.4	-1.78812E-001	-2.28786E-001	-2.03799E-001	2.52748E-008	-2.41582E-008	4.94330E-008	-2.29000E-001	3.27039E-004	6	..........a	-327.68
	74	7.5	-1.76837E-001	-2.26828E-001	-2.01833E-001	2.48631E-008	-2.32547E-008	4.81178E-008	-2.27000E-001	3.10373E-004	6	..........a	-327.68
	75	7.6	-1.74865E-001	-2.24866E-001	-1.99865E-001	2.44584E-008	-2.21509E-008	4.66093E-008	-2.25000E-001	3.09873E-004	6	..........a	-327.68
	76	7.7	-1.72836E-001	-2.22860E-001	-1.97848E-001	2.40710E-008	-2.09587E-008	4.50297E-008	-2.23000E-001	3.17539E-004	6	..........a	-327.68
	77	7.8	-1.70831E-001	-2.20852E-001	-1.95841E-001	2.37236E-008	-2.00603E-008	4.37839E-008	-2.21000E-001	3.14873E-004	6	..........a	-327.68
	78	7.9	-1.68842E-001	-2.18846E-001	-1.93844E-001	2.34726E-008	-1.93269E-008	4.27994E-008	-2.19000E-001	3.12039E-004	6	..........a	-327.68
	79	8	-1.66854E-001	-2.16877E-001	-1.91865E-001	2.31162E-008	-1.86148E-008	4.17310E-008	-2.17000E-001	3.10206E-004	6	..........a	-327.68
	80	8.1	-1.64720E-001	-2.14869E-001	-1.89794E-001	2.32092E-008	-1.78767E-008	4.10859E-008	-2.15000E-001	3.10373E-004	6	..........a	-327.68
	81	8.2	-1.62806E-001	-2.12811E-001	-1.87808E-001	2.28248E-008	-1.73396E-008	4.01644E-008	-2.13000E-001	3.09706E-004	6	..........a	-327.68
	82	8.3	-1.60865E-001	-2.10835E-001	-1.85850E-001	2.27398E-008	-1.67389E-008	3.94787E-008	-2.11000E-001	3.15039E-004	6	..........a	-327.68
	83	8.4	-1.58852E-001	-2.08862E-001	-1.83857E-001	2.25885E-008	-1.61805E-008	3.87689E-008	-2.09000E-001	3.08873E-004	6	..........a	-327.68
	84	8.5	-1.56792E-001	-2.06860E-001	-1.81826E-001	2.24578E-008	-1.59454E-008	3.84032E-008	-2.07000E-001	3.20039E-004	6	..........a	-327.68
	85	8.6	-1.54800E-001	-2.04773E-001	-1.79786E-001	2.23878E-008	-1.55037E-008	3.78915E-008	-2.05000E-001	3.26206E-004	6	..........a	-327.68
	86	8.7	-1.52852E-001	-2.02822E-001	-1.77837E-001	2.24671E-008	-1.53187E-008	3.77858E-008	-2.03000E-001	3.05873E-004	6	..........a	-327.68
	87	8.8	-1.50861E-001	-2.00870E-001	-1.75866E-001	2.21647E-008	-1.48420E-008	3.70067E-008	-2.01000E-001	3.25706E-004	6	..........a	-327.68
	88	8.9	-1.48825E-001	-1.98864E-001	-1.73844E-001	2.21184E-008	-1.46863E-008	3.68047E-008	-1.99000E-001	3.15373E-004	6	..........a	-327.68
	89	9	-1.46815E-001	-1.96814E-001	-1.71815E-001	2.22234E-008	-1.42676E-008	3.64910E-008	-1.97000E-001	3.19206E-004	6	..........a	-327.68
	90	9.1	-1.44840E-001	-1.94839E-001	-1.69839E-001	2.22391E-008	-1.40285E-008	3.62676E-008	-1.95000E-001	3.09539E-004	6	..........a	-327.68
	91	9.2	-1.42860E-001	-1.92849E-001	-1.67854E-001	2.22954E-008	-1.37352E-008	3.60306E-008	-1.93000E-001	3.27039E-004	6	..........a	-327.68
	92	9.3	-1.40839E-001	-1.90888E-001	-1.65864E-001	2.23301E-008	-1.34331E-008	3.57632E-008	-1.91000E-001	3.20873E-004	6	..........a	-327.68
	93	9.4	-1.38784E-001	-1.88700E-001	-1.63742E-001	2.22808E-008	-1.32218E-008	3.55025E-008	-1.89000E-001	3.22873E-004	6	..........a	-327.68
	94	9.5	-1.36854E-001	-1.86819E-001	-1.61836E-001	2.22177E-008	-1.29887E-008	3.52065E-008	-1.87000E-001	3.25873E-004	6	..........a	-327.68
	95	9.6	-1.34851E-001	-1.84852E-001	-1.59851E-001	2.23028E-008	-1.29687E-008	3.52715E-008	-1.85000E-001	3.17873E-004	6	..........a	-327.68
	96	9.7	-1.32760E-001	-1.82842E-001	-1.57801E-001	2.25305E-008	-1.29151E-008	3.54455E-008	-1.83000E-001	3.29206E-004	6	..........a	-327.68
	97	9.8	-1.30793E-001	-1.80715E-001	-1.55754E-001	2.23824E-008	-1.26230E-008	3.50055E-008	-1.81000E-001	3.20873E-004	6	..........a	-327.68
	98	9.9	-1.28832E-001	-1.78819E-001	-1.53825E-001	2.24214E-008	-1.24700E-008	3.48914E-008	-1.79000E-001	3.21873E-004	6	..........a	-327.68
	99	10	-1.26861E-001	-1.76847E-001	-1.51854E-001	2.24794E-008	-1.24057E-008	3.48851E-008	-1.77000E-001	3.16539E-004	6	..........a	-327.68
	100	10.1	-1.24797E-001	-1.74857E-001	-1.49827E-001	2.26661E-008	-1.23507E-008	3.50168E-008	-1.75000E-001	3.23039E-004	6	..........a	-327.68
