EXPLAIN
TAG	SQUARE_WAVE
TITLE	LABEL	Square Wave Voltammetry	Test Identifier
DATE	LABEL	8/31/2020	Date
TIME	LABEL	14:55:13	Time
NOTES	NOTES	1	Notes...
	
PSTAT	PSTAT	REF600-24079	Potentiostat
VINIT	QUANT	-3.50000E-001	Initial E (V)
VFINAL	QUANT	-1.50000E-001	Final E (V)
STEPSIZE	QUANT	2.00000E+000	Step Size (mV)
TIMERRES	QUANT	3.33340E-005	&Timer Resolution
FREQUENCY	QUANT	1.00000E+001	Frequency (Hz)
PULSESIZE	QUANT	2.50000E+001	Pulse Size E (mV)
PULSEON	QUANT	1.00000E-001	Pulse &Time (s)
NOISEREJECT	TOGGLE	F	Noise Rejection
AREA	QUANT	2.00000E-002	Sample Area (cm^2)
IMODE	SELECTOR	1	I/E Range Mode
IRANGE	QUANT	1.00000E-003	Max Current (mA)
EQDELAY	IQUANT	10	Equil. Time (s)
IRCOMP	SELECTOR	0	IRComp
PFCOR	QUANT	5.00000E+001	PF Corr. (ohm)
CYCLES	IQUANT	101	C&ycles (#)
ELECTRODETYPE	SELECTOR	0	Electrode Type
STRIPPING	TOGGLE	F	Used for Stripping
POLARITY	TOGGLE	F	Signal Polarity
LINEFREQ	IQUANT	60	Line Frequency (Hz)
INTPERIOD	QUANT	3.3334E-005	Integration Period (s)
SEQUENCER	TOGGLE	TRUE	Run as Sequence
PSTATMODEL	IQUANT	4	Pstat Model
PSTATSECTION	LABEL	REF600-24079	Pstat Section
PSTATSERIALNO	LABEL	24079	Pstat Serial Number
CTRLMODE	IQUANT	1	Control Mode
ELECTROMETER	IQUANT	0	RE=0 or CS=1
IESTAB	IQUANT	2	I/E Stability
CASPEED	IQUANT	6	Control Amp Speed
CONVENTION	IQUANT	1	Current Convention
ICHRANGE	IQUANT	2	Ich Range
ICHRANGEMODE	TOGGLE	F	Ich Auto Range
ICHOFFSETENABLE	TOGGLE	F	Ich Offset Enable
ICHOFFSET	QUANT	0	Ich Offset (V)
ICHFILTER	IQUANT	2	Ich Filter
VCHRANGE	IQUANT	2	Vch Range
VCHRANGEMODE	TOGGLE	F	Vch Auto Range
VCHOFFSETENABLE	TOGGLE	F	Vch Offset Enable
VCHOFFSET	QUANT	0	Vch Offset (V)
VCHFILTER	IQUANT	2	Vch Filter
ACHRANGE	IQUANT	2	Ach Range
ACHOFFSETENABLE	TOGGLE	F	Ach Offset Enable
ACHOFFSET	QUANT	0	Ach Offset (V)
ACHFILTER	IQUANT	1	Ach Filter
IERANGELOWERLIMIT	IQUANT	1	I/E Range Lower Limit
IERANGEMODE	TOGGLE	F	I/E AutoRange
IERANGE	IQUANT	6	I/E Range
POSFEEDENABLE	TOGGLE	F	Positive Feedback IR Comp
POSFEEDRESISTANCE	QUANT	0	Positive Feedback Resistance (ohm)
ACHSELECT	IQUANT	0	Ach Select
SENSECABLEID	IQUANT	13	Sense Cable ID
PWRCABLEID	IQUANT	13	Power Cable ID
DCCALDATE	LABEL	6/30/2020	DC Calibration Date
ACCALDATE	LABEL	6/30/2020	AC Calibration Date
THERMOSELECT	IQUANT	1	Thermo Select
FRAMEWORKVERSION	LABEL	7.8.2	Framework Version
INSTRUMENTVERSION	LABEL	4.40	Instrument Version
CURVE	TABLE	101
	Pt	T	Vfwd	Vrev	Vstep	Ifwd	Irev	Idif	Sig	Ach	IERange	Over	Temp
	#	s	V	V	V	A	A	A	V	V	#	bits	deg C
	0	0.1	-3.24848E-001	-3.74876E-001	-3.49862E-001	-1.29071E-008	-4.74725E-008	3.45654E-008	-3.75000E-001	3.79206E-004	6	..........a	-327.68
	1	0.2	-3.22850E-001	-3.72880E-001	-3.47865E-001	1.04972E-009	-4.20541E-008	4.31038E-008	-3.73000E-001	3.55706E-004	6	..........a	-327.68
	2	0.3	-3.20880E-001	-3.70774E-001	-3.45827E-001	3.72672E-009	-3.97815E-008	4.35082E-008	-3.71000E-001	3.47373E-004	6	..........a	-327.68
	3	0.4	-3.18895E-001	-3.68884E-001	-3.43890E-001	5.54562E-009	-3.86757E-008	4.42213E-008	-3.69000E-001	3.70039E-004	6	..........a	-327.68
	4	0.5	-3.16759E-001	-3.66927E-001	-3.41843E-001	6.73544E-009	-3.78446E-008	4.45800E-008	-3.67000E-001	3.56873E-004	6	..........a	-327.68
	5	0.6	-3.14860E-001	-3.64825E-001	-3.39843E-001	7.80691E-009	-3.71131E-008	4.49200E-008	-3.65000E-001	3.57039E-004	6	..........a	-327.68
	6	0.7	-3.12870E-001	-3.62825E-001	-3.37848E-001	8.64602E-009	-3.65584E-008	4.52044E-008	-3.63000E-001	3.45873E-004	6	..........a	-327.68
	7	0.8	-3.10864E-001	-3.60849E-001	-3.35856E-001	9.46512E-009	-3.59330E-008	4.53981E-008	-3.61000E-001	3.44039E-004	6	..........a	-327.68
	8	0.9	-3.08789E-001	-3.58865E-001	-3.33827E-001	1.03499E-008	-3.55069E-008	4.58568E-008	-3.59000E-001	3.42539E-004	6	..........a	-327.68
	9	1	-3.06808E-001	-3.56849E-001	-3.31829E-001	1.13860E-008	-3.53886E-008	4.67746E-008	-3.57000E-001	3.50539E-004	6	..........a	-327.68
	10	1.1	-3.04870E-001	-3.54835E-001	-3.29852E-001	1.23485E-008	-3.50879E-008	4.74364E-008	-3.55000E-001	3.49706E-004	6	..........a	-327.68
	11	1.2	-3.02894E-001	-3.52878E-001	-3.27886E-001	1.31339E-008	-3.48495E-008	4.79834E-008	-3.53000E-001	3.40873E-004	6	..........a	-327.68
	12	1.3	-3.00844E-001	-3.50882E-001	-3.25863E-001	1.44041E-008	-3.49405E-008	4.93446E-008	-3.51000E-001	3.46039E-004	6	..........a	-327.68
	13	1.4	-2.98846E-001	-3.48872E-001	-3.23859E-001	1.53442E-008	-3.48128E-008	5.01570E-008	-3.49000E-001	3.50539E-004	6	..........a	-327.68
	14	1.5	-2.96874E-001	-3.46866E-001	-3.21870E-001	1.66247E-008	-3.48975E-008	5.15222E-008	-3.47000E-001	3.54206E-004	6	..........a	-327.68
	15	1.6	-2.94888E-001	-3.44874E-001	-3.19881E-001	1.79725E-008	-3.50539E-008	5.30264E-008	-3.45000E-001	3.46539E-004	6	..........a	-327.68
	16	1.7	-2.92772E-001	-3.42886E-001	-3.17829E-001	1.93264E-008	-3.53506E-008	5.46770E-008	-3.43000E-001	3.44539E-004	6	..........a	-327.68
	17	1.8	-2.90816E-001	-3.40855E-001	-3.15835E-001	2.07379E-008	-3.56620E-008	5.63998E-008	-3.41000E-001	3.53373E-004	6	..........a	-327.68
	18	1.9	-2.88896E-001	-3.38836E-001	-3.13866E-001	2.25131E-008	-3.61300E-008	5.86431E-008	-3.39000E-001	3.60873E-004	6	..........a	-327.68
	19	2	-2.86869E-001	-3.36871E-001	-3.11870E-001	2.42567E-008	-3.68831E-008	6.11398E-008	-3.37000E-001	3.48039E-004	6	..........a	-327.68
	20	2.1	-2.84821E-001	-3.34870E-001	-3.09845E-001	2.58749E-008	-3.75069E-008	6.33817E-008	-3.35000E-001	3.52539E-004	6	..........a	-327.68
	21	2.2	-2.82813E-001	-3.32795E-001	-3.07804E-001	2.82005E-008	-3.82560E-008	6.64565E-008	-3.33000E-001	3.62706E-004	6	..........a	-327.68
	22	2.3	-2.80879E-001	-3.30830E-001	-3.05855E-001	3.01397E-008	-3.93668E-008	6.95065E-008	-3.31000E-001	3.65873E-004	6	..........a	-327.68
	23	2.4	-2.78846E-001	-3.28874E-001	-3.03860E-001	3.22170E-008	-4.05496E-008	7.27666E-008	-3.29000E-001	3.63539E-004	6	..........a	-327.68
	24	2.5	-2.76833E-001	-3.26877E-001	-3.01855E-001	3.46483E-008	-4.15154E-008	7.61637E-008	-3.27000E-001	3.47873E-004	6	..........a	-327.68
	25	2.6	-2.74836E-001	-3.24874E-001	-2.99855E-001	3.69313E-008	-4.31896E-008	8.01209E-008	-3.25000E-001	3.75039E-004	6	..........a	-327.68
	26	2.7	-2.72873E-001	-3.22860E-001	-2.97866E-001	3.94269E-008	-4.45998E-008	8.40267E-008	-3.23000E-001	3.55873E-004	6	..........a	-327.68
	27	2.8	-2.70882E-001	-3.20876E-001	-2.95879E-001	4.22043E-008	-4.62760E-008	8.84803E-008	-3.21000E-001	3.52539E-004	6	..........a	-327.68
	28	2.9	-2.68868E-001	-3.18885E-001	-2.93876E-001	4.44346E-008	-4.83179E-008	9.27525E-008	-3.19000E-001	3.55873E-004	6	..........a	-327.68
	29	3	-2.66806E-001	-3.16785E-001	-2.91796E-001	4.68349E-008	-5.04258E-008	9.72607E-008	-3.17000E-001	3.63373E-004	6	..........a	-327.68
	30	3.1	-2.64869E-001	-3.14876E-001	-2.89873E-001	4.94519E-008	-5.25118E-008	1.01964E-007	-3.15000E-001	3.80373E-004	6	..........a	-327.68
	31	3.2	-2.62882E-001	-3.12880E-001	-2.87881E-001	5.18098E-008	-5.46437E-008	1.06454E-007	-3.13000E-001	3.65039E-004	6	..........a	-327.68
	32	3.3	-2.60808E-001	-3.10860E-001	-2.85834E-001	5.39958E-008	-5.71730E-008	1.11169E-007	-3.11000E-001	3.63373E-004	6	..........a	-327.68
	33	3.4	-2.58793E-001	-3.08851E-001	-2.83822E-001	5.61354E-008	-5.95673E-008	1.15703E-007	-3.09000E-001	3.59039E-004	6	..........a	-327.68
	34	3.5	-2.56845E-001	-3.06849E-001	-2.81847E-001	5.79406E-008	-6.21433E-008	1.20084E-007	-3.07000E-001	3.70039E-004	6	..........a	-327.68
	35	3.6	-2.54891E-001	-3.04888E-001	-2.79889E-001	5.94845E-008	-6.47700E-008	1.24254E-007	-3.05000E-001	3.62539E-004	6	..........a	-327.68
	36	3.7	-2.52809E-001	-3.02896E-001	-2.77852E-001	6.09007E-008	-6.71303E-008	1.28031E-007	-3.03000E-001	3.63706E-004	6	..........a	-327.68
	37	3.8	-2.50821E-001	-3.00884E-001	-2.75852E-001	6.21658E-008	-6.97973E-008	1.31963E-007	-3.01000E-001	3.63873E-004	6	..........a	-327.68
	38	3.9	-2.48848E-001	-2.98867E-001	-2.73857E-001	6.28059E-008	-7.19496E-008	1.34755E-007	-2.99000E-001	3.57873E-004	6	..........a	-327.68
	39	4	-2.46846E-001	-2.96873E-001	-2.71860E-001	6.34130E-008	-7.45699E-008	1.37983E-007	-2.97000E-001	3.63539E-004	6	..........a	-327.68
	40	4.1	-2.44857E-001	-2.94879E-001	-2.69868E-001	6.37134E-008	-7.65095E-008	1.40223E-007	-2.95000E-001	3.60039E-004	6	..........a	-327.68
	41	4.2	-2.42746E-001	-2.92784E-001	-2.67765E-001	6.36217E-008	-7.83607E-008	1.41982E-007	-2.93000E-001	3.55206E-004	6	..........a	-327.68
	42	4.3	-2.40847E-001	-2.90832E-001	-2.65839E-001	6.33206E-008	-7.99786E-008	1.43299E-007	-2.91000E-001	3.63706E-004	6	..........a	-327.68
	43	4.4	-2.38883E-001	-2.88901E-001	-2.63892E-001	6.26856E-008	-8.11621E-008	1.43848E-007	-2.89000E-001	3.48706E-004	6	..........a	-327.68
	44	4.5	-2.36809E-001	-2.86892E-001	-2.61850E-001	6.18488E-008	-8.22979E-008	1.44147E-007	-2.87000E-001	3.52873E-004	6	..........a	-327.68
	45	4.6	-2.34809E-001	-2.84833E-001	-2.59821E-001	6.07150E-008	-8.28606E-008	1.43576E-007	-2.85000E-001	3.56873E-004	6	..........a	-327.68
	46	4.7	-2.32809E-001	-2.82831E-001	-2.57820E-001	5.94891E-008	-8.31470E-008	1.42636E-007	-2.83000E-001	3.55039E-004	6	..........a	-327.68
	47	4.8	-2.30823E-001	-2.80885E-001	-2.55854E-001	5.81703E-008	-8.27149E-008	1.40885E-007	-2.81000E-001	3.56539E-004	6	..........a	-327.68
	48	4.9	-2.28761E-001	-2.78880E-001	-2.53821E-001	5.66651E-008	-8.24976E-008	1.39163E-007	-2.79000E-001	3.64039E-004	6	..........a	-327.68
	49	5	-2.26802E-001	-2.76869E-001	-2.51836E-001	5.48599E-008	-8.17195E-008	1.36579E-007	-2.77000E-001	3.66539E-004	6	..........a	-327.68
	50	5.1	-2.24851E-001	-2.74844E-001	-2.49848E-001	5.32023E-008	-8.03560E-008	1.33558E-007	-2.75000E-001	3.53706E-004	6	..........a	-327.68
	51	5.2	-2.22857E-001	-2.72869E-001	-2.47863E-001	5.15288E-008	-7.90118E-008	1.30541E-007	-2.73000E-001	3.64706E-004	6	..........a	-327.68
	52	5.3	-2.20839E-001	-2.70861E-001	-2.45850E-001	4.96929E-008	-7.68149E-008	1.26508E-007	-2.71000E-001	3.57373E-004	6	..........a	-327.68
	53	5.4	-2.18832E-001	-2.68873E-001	-2.43853E-001	4.78240E-008	-7.49186E-008	1.22743E-007	-2.69000E-001	3.69706E-004	6	..........a	-327.68
	54	5.5	-2.16843E-001	-2.66814E-001	-2.41829E-001	4.58774E-008	-7.25407E-008	1.18418E-007	-2.67000E-001	3.88539E-004	6	..........a	-327.68
	55	5.6	-2.14855E-001	-2.64877E-001	-2.39866E-001	4.42029E-008	-6.98033E-008	1.14006E-007	-2.65000E-001	3.82373E-004	6	..........a	-327.68
	56	5.7	-2.12804E-001	-2.62873E-001	-2.37839E-001	4.25523E-008	-6.71403E-008	1.09693E-007	-2.63000E-001	3.83873E-004	6	..........a	-327.68
	57	5.8	-2.10830E-001	-2.60780E-001	-2.35805E-001	4.10108E-008	-6.40902E-008	1.05101E-007	-2.61000E-001	3.75873E-004	6	..........a	-327.68
	58	5.9	-2.08855E-001	-2.58815E-001	-2.33835E-001	3.92832E-008	-6.11695E-008	1.00453E-007	-2.59000E-001	3.59539E-004	6	..........a	-327.68
	59	6	-2.06861E-001	-2.56871E-001	-2.31866E-001	3.79531E-008	-5.81938E-008	9.61469E-008	-2.57000E-001	3.74706E-004	6	..........a	-327.68
	60	6.1	-2.04780E-001	-2.54876E-001	-2.29828E-001	3.64469E-008	-5.51868E-008	9.16337E-008	-2.55000E-001	3.77373E-004	6	..........a	-327.68
	61	6.2	-2.02817E-001	-2.52843E-001	-2.27830E-001	3.51351E-008	-5.23201E-008	8.74551E-008	-2.53000E-001	3.69206E-004	6	..........a	-327.68
	62	6.3	-2.00852E-001	-2.50849E-001	-2.25850E-001	3.36915E-008	-4.95684E-008	8.32599E-008	-2.51000E-001	3.72873E-004	6	..........a	-327.68
	63	6.4	-1.98857E-001	-2.48866E-001	-2.23861E-001	3.24527E-008	-4.67584E-008	7.92111E-008	-2.49000E-001	3.60206E-004	6	..........a	-327.68
	64	6.5	-1.96840E-001	-2.46865E-001	-2.21852E-001	3.14913E-008	-4.41744E-008	7.56656E-008	-2.47000E-001	3.63206E-004	6	..........a	-327.68
	65	6.6	-1.94840E-001	-2.44872E-001	-2.19856E-001	3.05785E-008	-4.16497E-008	7.22282E-008	-2.45000E-001	3.57539E-004	6	..........a	-327.68
	66	6.7	-1.92861E-001	-2.42780E-001	-2.17820E-001	2.94060E-008	-3.91421E-008	6.85481E-008	-2.43000E-001	3.62373E-004	6	..........a	-327.68
	67	6.8	-1.90900E-001	-2.40865E-001	-2.15882E-001	2.87759E-008	-3.67694E-008	6.55453E-008	-2.41000E-001	3.63539E-004	6	..........a	-327.68
	68	6.9	-1.88724E-001	-2.38900E-001	-2.13812E-001	2.79818E-008	-3.47252E-008	6.27070E-008	-2.39000E-001	3.64373E-004	6	..........a	-327.68
	69	7	-1.86823E-001	-2.36827E-001	-2.11825E-001	2.72857E-008	-3.27476E-008	6.00333E-008	-2.37000E-001	3.76373E-004	6	..........a	-327.68
	70	7.1	-1.84857E-001	-2.34821E-001	-2.09839E-001	2.64589E-008	-3.10130E-008	5.74720E-008	-2.35000E-001	3.53373E-004	6	..........a	-327.68
	71	7.2	-1.82836E-001	-2.32832E-001	-2.07834E-001	2.60896E-008	-2.93508E-008	5.54404E-008	-2.33000E-001	3.50039E-004	6	..........a	-327.68
	72	7.3	-1.80795E-001	-2.30858E-001	-2.05826E-001	2.54592E-008	-2.78626E-008	5.33218E-008	-2.31000E-001	3.57206E-004	6	..........a	-327.68
	73	7.4	-1.78804E-001	-2.28793E-001	-2.03799E-001	2.49144E-008	-2.64061E-008	5.13205E-008	-2.29000E-001	3.62373E-004	6	..........a	-327.68
	74	7.5	-1.76855E-001	-2.26815E-001	-2.01835E-001	2.44044E-008	-2.53940E-008	4.97983E-008	-2.27000E-001	3.47706E-004	6	..........a	-327.68
	75	7.6	-1.74873E-001	-2.24860E-001	-1.99866E-001	2.43563E-008	-2.42482E-008	4.86045E-008	-2.25000E-001	3.55039E-004	6	..........a	-327.68
	76	7.7	-1.72837E-001	-2.22854E-001	-1.97846E-001	2.38406E-008	-2.31097E-008	4.69503E-008	-2.23000E-001	3.69706E-004	6	..........a	-327.68
	77	7.8	-1.70819E-001	-2.20841E-001	-1.95830E-001	2.37123E-008	-2.22239E-008	4.59362E-008	-2.21000E-001	3.54039E-004	6	..........a	-327.68
	78	7.9	-1.68843E-001	-2.18850E-001	-1.93847E-001	2.32999E-008	-2.14065E-008	4.47064E-008	-2.19000E-001	3.50039E-004	6	..........a	-327.68
	79	8	-1.66861E-001	-2.16851E-001	-1.91856E-001	2.30755E-008	-2.08971E-008	4.39726E-008	-2.17000E-001	3.59206E-004	6	..........a	-327.68
	80	8.1	-1.64730E-001	-2.14878E-001	-1.89804E-001	2.29248E-008	-2.00853E-008	4.30101E-008	-2.15000E-001	3.55539E-004	6	..........a	-327.68
	81	8.2	-1.62797E-001	-2.12851E-001	-1.87824E-001	2.28135E-008	-1.95509E-008	4.23644E-008	-2.13000E-001	3.66206E-004	6	..........a	-327.68
	82	8.3	-1.60873E-001	-2.10838E-001	-1.85855E-001	2.28512E-008	-1.88325E-008	4.16836E-008	-2.11000E-001	3.34039E-004	6	..........a	-327.68
	83	8.4	-1.58865E-001	-2.08865E-001	-1.83865E-001	2.27195E-008	-1.83407E-008	4.10602E-008	-2.09000E-001	3.49039E-004	6	..........a	-327.68
	84	8.5	-1.56790E-001	-2.06860E-001	-1.81825E-001	2.26758E-008	-1.79564E-008	4.06322E-008	-2.07000E-001	3.52373E-004	6	..........a	-327.68
	85	8.6	-1.54820E-001	-2.04799E-001	-1.79809E-001	2.25518E-008	-1.73713E-008	3.99231E-008	-2.05000E-001	3.55206E-004	6	..........a	-327.68
	86	8.7	-1.52855E-001	-2.02824E-001	-1.77840E-001	2.24618E-008	-1.71429E-008	3.96047E-008	-2.03000E-001	3.73206E-004	6	..........a	-327.68
	87	8.8	-1.50842E-001	-2.00859E-001	-1.75851E-001	2.24191E-008	-1.69082E-008	3.93273E-008	-2.01000E-001	3.63206E-004	6	..........a	-327.68
	88	8.9	-1.48820E-001	-1.98861E-001	-1.73840E-001	2.24381E-008	-1.64428E-008	3.88809E-008	-1.99000E-001	3.67039E-004	6	..........a	-327.68
	89	9	-1.46823E-001	-1.96853E-001	-1.71838E-001	2.25128E-008	-1.62575E-008	3.87703E-008	-1.97000E-001	3.67539E-004	6	..........a	-327.68
	90	9.1	-1.44848E-001	-1.94839E-001	-1.69843E-001	2.23504E-008	-1.59598E-008	3.83102E-008	-1.95000E-001	3.63539E-004	6	..........a	-327.68
	91	9.2	-1.42860E-001	-1.92857E-001	-1.67859E-001	2.24651E-008	-1.56891E-008	3.81542E-008	-1.93000E-001	3.65039E-004	6	..........a	-327.68
	92	9.3	-1.40854E-001	-1.90896E-001	-1.65875E-001	2.24591E-008	-1.55961E-008	3.80552E-008	-1.91000E-001	3.66706E-004	6	..........a	-327.68
	93	9.4	-1.38794E-001	-1.88725E-001	-1.63759E-001	2.26375E-008	-1.53670E-008	3.80045E-008	-1.89000E-001	3.61706E-004	6	..........a	-327.68
	94	9.5	-1.36830E-001	-1.86835E-001	-1.61832E-001	2.25431E-008	-1.51573E-008	3.77005E-008	-1.87000E-001	3.49373E-004	6	..........a	-327.68
	95	9.6	-1.34855E-001	-1.84864E-001	-1.59859E-001	2.26165E-008	-1.48573E-008	3.74738E-008	-1.85000E-001	3.67206E-004	6	..........a	-327.68
	96	9.7	-1.32778E-001	-1.82834E-001	-1.57806E-001	2.25928E-008	-1.47620E-008	3.73548E-008	-1.83000E-001	3.53706E-004	6	..........a	-327.68
	97	9.8	-1.30791E-001	-1.80745E-001	-1.55768E-001	2.27471E-008	-1.46760E-008	3.74231E-008	-1.81000E-001	3.64706E-004	6	..........a	-327.68
	98	9.9	-1.28843E-001	-1.78808E-001	-1.53825E-001	2.28605E-008	-1.42352E-008	3.70957E-008	-1.79000E-001	3.72706E-004	6	..........a	-327.68
	99	10	-1.26871E-001	-1.76845E-001	-1.51858E-001	2.27648E-008	-1.41112E-008	3.68760E-008	-1.77000E-001	3.52373E-004	6	..........a	-327.68
	100	10.1	-1.24792E-001	-1.74858E-001	-1.49825E-001	2.30509E-008	-1.39259E-008	3.69767E-008	-1.75000E-001	3.48706E-004	6	..........a	-327.68
