EXPLAIN
TAG	SQUARE_WAVE
TITLE	LABEL	Square Wave Voltammetry	Test Identifier
DATE	LABEL	8/31/2020	Date
TIME	LABEL	12:46:12	Time
NOTES	NOTES	1	Notes...
	
PSTAT	PSTAT	REF600-24079	Potentiostat
VINIT	QUANT	-3.50000E-001	Initial E (V)
VFINAL	QUANT	-1.50000E-001	Final E (V)
STEPSIZE	QUANT	2.00000E+000	Step Size (mV)
TIMERRES	QUANT	3.33340E-005	&Timer Resolution
FREQUENCY	QUANT	1.00000E+001	Frequency (Hz)
PULSESIZE	QUANT	2.50000E+001	Pulse Size E (mV)
PULSEON	QUANT	1.00000E-001	Pulse &Time (s)
NOISEREJECT	TOGGLE	F	Noise Rejection
AREA	QUANT	2.00000E-002	Sample Area (cm^2)
IMODE	SELECTOR	1	I/E Range Mode
IRANGE	QUANT	1.00000E-003	Max Current (mA)
EQDELAY	IQUANT	10	Equil. Time (s)
IRCOMP	SELECTOR	0	IRComp
PFCOR	QUANT	5.00000E+001	PF Corr. (ohm)
CYCLES	IQUANT	101	C&ycles (#)
ELECTRODETYPE	SELECTOR	0	Electrode Type
STRIPPING	TOGGLE	F	Used for Stripping
POLARITY	TOGGLE	F	Signal Polarity
LINEFREQ	IQUANT	60	Line Frequency (Hz)
INTPERIOD	QUANT	3.3334E-005	Integration Period (s)
SEQUENCER	TOGGLE	TRUE	Run as Sequence
PSTATMODEL	IQUANT	4	Pstat Model
PSTATSECTION	LABEL	REF600-24079	Pstat Section
PSTATSERIALNO	LABEL	24079	Pstat Serial Number
CTRLMODE	IQUANT	1	Control Mode
ELECTROMETER	IQUANT	0	RE=0 or CS=1
IESTAB	IQUANT	2	I/E Stability
CASPEED	IQUANT	6	Control Amp Speed
CONVENTION	IQUANT	1	Current Convention
ICHRANGE	IQUANT	2	Ich Range
ICHRANGEMODE	TOGGLE	F	Ich Auto Range
ICHOFFSETENABLE	TOGGLE	F	Ich Offset Enable
ICHOFFSET	QUANT	0	Ich Offset (V)
ICHFILTER	IQUANT	2	Ich Filter
VCHRANGE	IQUANT	2	Vch Range
VCHRANGEMODE	TOGGLE	F	Vch Auto Range
VCHOFFSETENABLE	TOGGLE	F	Vch Offset Enable
VCHOFFSET	QUANT	0	Vch Offset (V)
VCHFILTER	IQUANT	2	Vch Filter
ACHRANGE	IQUANT	2	Ach Range
ACHOFFSETENABLE	TOGGLE	F	Ach Offset Enable
ACHOFFSET	QUANT	0	Ach Offset (V)
ACHFILTER	IQUANT	1	Ach Filter
IERANGELOWERLIMIT	IQUANT	1	I/E Range Lower Limit
IERANGEMODE	TOGGLE	F	I/E AutoRange
IERANGE	IQUANT	6	I/E Range
POSFEEDENABLE	TOGGLE	F	Positive Feedback IR Comp
POSFEEDRESISTANCE	QUANT	0	Positive Feedback Resistance (ohm)
ACHSELECT	IQUANT	0	Ach Select
SENSECABLEID	IQUANT	13	Sense Cable ID
PWRCABLEID	IQUANT	13	Power Cable ID
DCCALDATE	LABEL	6/30/2020	DC Calibration Date
ACCALDATE	LABEL	6/30/2020	AC Calibration Date
THERMOSELECT	IQUANT	1	Thermo Select
FRAMEWORKVERSION	LABEL	7.8.2	Framework Version
INSTRUMENTVERSION	LABEL	4.40	Instrument Version
CURVE	TABLE	101
	Pt	T	Vfwd	Vrev	Vstep	Ifwd	Irev	Idif	Sig	Ach	IERange	Over	Temp
	#	s	V	V	V	A	A	A	V	V	#	bits	deg C
	0	0.1	-3.24832E-001	-3.74868E-001	-3.49850E-001	-1.64815E-008	-5.20900E-008	3.56085E-008	-3.75000E-001	3.75206E-004	6	..........a	-327.68
	1	0.2	-3.22843E-001	-3.72882E-001	-3.47862E-001	-2.82244E-009	-4.67900E-008	4.39676E-008	-3.73000E-001	3.65206E-004	6	..........a	-327.68
	2	0.3	-3.20870E-001	-3.70805E-001	-3.45838E-001	4.95313E-010	-4.43984E-008	4.48937E-008	-3.71000E-001	3.43706E-004	6	..........a	-327.68
	3	0.4	-3.18897E-001	-3.68901E-001	-3.43899E-001	2.00984E-009	-4.31376E-008	4.51474E-008	-3.69000E-001	3.47373E-004	6	..........a	-327.68
	4	0.5	-3.16764E-001	-3.66909E-001	-3.41837E-001	3.35334E-009	-4.18241E-008	4.51774E-008	-3.67000E-001	3.55373E-004	6	..........a	-327.68
	5	0.6	-3.14882E-001	-3.64820E-001	-3.39851E-001	4.39148E-009	-4.10590E-008	4.54505E-008	-3.65000E-001	3.53539E-004	6	..........a	-327.68
	6	0.7	-3.12901E-001	-3.62822E-001	-3.37861E-001	5.38694E-009	-4.03646E-008	4.57515E-008	-3.63000E-001	3.57206E-004	6	..........a	-327.68
	7	0.8	-3.10883E-001	-3.60868E-001	-3.35875E-001	6.18070E-009	-3.98078E-008	4.59885E-008	-3.61000E-001	3.54206E-004	6	..........a	-327.68
	8	0.9	-3.08801E-001	-3.58882E-001	-3.33841E-001	7.21584E-009	-3.93017E-008	4.65176E-008	-3.59000E-001	3.38873E-004	6	..........a	-327.68
	9	1	-3.06815E-001	-3.56747E-001	-3.31781E-001	8.29264E-009	-3.89040E-008	4.71967E-008	-3.57000E-001	3.44539E-004	6	..........a	-327.68
	10	1.1	-3.04858E-001	-3.54829E-001	-3.29844E-001	9.33477E-009	-3.85860E-008	4.79208E-008	-3.55000E-001	3.39873E-004	6	..........a	-327.68
	11	1.2	-3.02882E-001	-3.52869E-001	-3.27875E-001	1.04222E-008	-3.84126E-008	4.88349E-008	-3.53000E-001	3.33706E-004	6	..........a	-327.68
	12	1.3	-3.00840E-001	-3.50868E-001	-3.25854E-001	1.17117E-008	-3.82466E-008	4.99584E-008	-3.51000E-001	3.51373E-004	6	..........a	-327.68
	13	1.4	-2.98846E-001	-3.48851E-001	-3.23848E-001	1.26445E-008	-3.83163E-008	5.09608E-008	-3.49000E-001	3.42873E-004	6	..........a	-327.68
	14	1.5	-2.96883E-001	-3.46862E-001	-3.21873E-001	1.42324E-008	-3.82500E-008	5.24823E-008	-3.47000E-001	3.46039E-004	6	..........a	-327.68
	15	1.6	-2.94894E-001	-3.44870E-001	-3.19882E-001	1.56592E-008	-3.84230E-008	5.40822E-008	-3.45000E-001	3.46539E-004	6	..........a	-327.68
	16	1.7	-2.92735E-001	-3.42891E-001	-3.17813E-001	1.71621E-008	-3.84826E-008	5.56447E-008	-3.43000E-001	3.44039E-004	6	..........a	-327.68
	17	1.8	-2.90819E-001	-3.40721E-001	-3.15770E-001	1.90437E-008	-3.89237E-008	5.79674E-008	-3.41000E-001	3.43873E-004	6	..........a	-327.68
	18	1.9	-2.88912E-001	-3.38835E-001	-3.13874E-001	2.05959E-008	-3.93571E-008	5.99530E-008	-3.39000E-001	3.40039E-004	6	..........a	-327.68
	19	2	-2.86884E-001	-3.36856E-001	-3.11870E-001	2.26558E-008	-4.00045E-008	6.26603E-008	-3.37000E-001	3.41706E-004	6	..........a	-327.68
	20	2.1	-2.84809E-001	-3.34878E-001	-3.09844E-001	2.46374E-008	-4.08216E-008	6.54590E-008	-3.35000E-001	3.50539E-004	6	..........a	-327.68
	21	2.2	-2.82814E-001	-3.32805E-001	-3.07809E-001	2.69307E-008	-4.15880E-008	6.85187E-008	-3.33000E-001	3.55539E-004	6	..........a	-327.68
	22	2.3	-2.80893E-001	-3.30845E-001	-3.05869E-001	2.93143E-008	-4.26448E-008	7.19592E-008	-3.31000E-001	3.55039E-004	6	..........a	-327.68
	23	2.4	-2.78873E-001	-3.28878E-001	-3.03876E-001	3.17483E-008	-4.38387E-008	7.55870E-008	-3.29000E-001	3.49873E-004	6	..........a	-327.68
	24	2.5	-2.76829E-001	-3.26880E-001	-3.01854E-001	3.43306E-008	-4.51478E-008	7.94784E-008	-3.27000E-001	3.59206E-004	6	..........a	-327.68
	25	2.6	-2.74849E-001	-3.24862E-001	-2.99855E-001	3.68523E-008	-4.67960E-008	8.36483E-008	-3.25000E-001	3.57039E-004	6	..........a	-327.68
	26	2.7	-2.72871E-001	-3.22854E-001	-2.97863E-001	3.95099E-008	-4.83626E-008	8.78725E-008	-3.23000E-001	3.58539E-004	6	..........a	-327.68
	27	2.8	-2.70876E-001	-3.20870E-001	-2.95873E-001	4.22363E-008	-5.03665E-008	9.26028E-008	-3.21000E-001	3.61373E-004	6	..........a	-327.68
	28	2.9	-2.68866E-001	-3.18885E-001	-2.93875E-001	4.48830E-008	-5.21330E-008	9.70160E-008	-3.19000E-001	3.58206E-004	6	..........a	-327.68
	29	3	-2.66806E-001	-3.16790E-001	-2.91798E-001	4.76250E-008	-5.43727E-008	1.01998E-007	-3.17000E-001	3.51039E-004	6	..........a	-327.68
	30	3.1	-2.64888E-001	-3.14880E-001	-2.89884E-001	5.00399E-008	-5.67243E-008	1.06764E-007	-3.15000E-001	3.65873E-004	6	..........a	-327.68
	31	3.2	-2.62898E-001	-3.12890E-001	-2.87894E-001	5.26466E-008	-5.91276E-008	1.11774E-007	-3.13000E-001	3.47206E-004	6	..........a	-327.68
	32	3.3	-2.60801E-001	-3.10881E-001	-2.85841E-001	5.48769E-008	-6.18076E-008	1.16685E-007	-3.11000E-001	3.65039E-004	6	..........a	-327.68
	33	3.4	-2.58809E-001	-3.08812E-001	-2.83810E-001	5.67521E-008	-6.45536E-008	1.21306E-007	-3.09000E-001	3.56039E-004	6	..........a	-327.68
	34	3.5	-2.56837E-001	-3.06860E-001	-2.81849E-001	5.88471E-008	-6.71800E-008	1.26027E-007	-3.07000E-001	3.62039E-004	6	..........a	-327.68
	35	3.6	-2.54898E-001	-3.04904E-001	-2.79901E-001	6.04563E-008	-6.98566E-008	1.30313E-007	-3.05000E-001	3.53873E-004	6	..........a	-327.68
	36	3.7	-2.52818E-001	-3.02900E-001	-2.77859E-001	6.16331E-008	-7.25026E-008	1.34136E-007	-3.03000E-001	3.59873E-004	6	..........a	-327.68
	37	3.8	-2.50830E-001	-3.00894E-001	-2.75862E-001	6.28666E-008	-7.52723E-008	1.38139E-007	-3.01000E-001	3.48039E-004	6	..........a	-327.68
	38	3.9	-2.48869E-001	-2.98872E-001	-2.73870E-001	6.35513E-008	-7.77533E-008	1.41305E-007	-2.99000E-001	3.46039E-004	6	..........a	-327.68
	39	4	-2.46869E-001	-2.96879E-001	-2.71874E-001	6.40457E-008	-8.01870E-008	1.44233E-007	-2.97000E-001	3.48373E-004	6	..........a	-327.68
	40	4.1	-2.44862E-001	-2.94871E-001	-2.69866E-001	6.40087E-008	-8.21659E-008	1.46175E-007	-2.95000E-001	3.49039E-004	6	..........a	-327.68
	41	4.2	-2.42759E-001	-2.92743E-001	-2.67751E-001	6.39184E-008	-8.44138E-008	1.48332E-007	-2.93000E-001	3.43039E-004	6	..........a	-327.68
	42	4.3	-2.40853E-001	-2.90831E-001	-2.65842E-001	6.35123E-008	-8.59950E-008	1.49507E-007	-2.91000E-001	3.39873E-004	6	..........a	-327.68
	43	4.4	-2.38899E-001	-2.88917E-001	-2.63908E-001	6.26272E-008	-8.73255E-008	1.49953E-007	-2.89000E-001	3.42373E-004	6	..........a	-327.68
	44	4.5	-2.36798E-001	-2.86884E-001	-2.61841E-001	6.16321E-008	-8.79799E-008	1.49612E-007	-2.87000E-001	3.54706E-004	6	..........a	-327.68
	45	4.6	-2.34805E-001	-2.84806E-001	-2.59805E-001	6.02146E-008	-8.86844E-008	1.48899E-007	-2.85000E-001	3.42873E-004	6	..........a	-327.68
	46	4.7	-2.32835E-001	-2.82812E-001	-2.57823E-001	5.88141E-008	-8.90637E-008	1.47878E-007	-2.83000E-001	3.51039E-004	6	..........a	-327.68
	47	4.8	-2.30857E-001	-2.80898E-001	-2.55878E-001	5.74326E-008	-8.87800E-008	1.46213E-007	-2.81000E-001	3.50873E-004	6	..........a	-327.68
	48	4.9	-2.28799E-001	-2.78886E-001	-2.53843E-001	5.55663E-008	-8.79079E-008	1.43474E-007	-2.79000E-001	3.41539E-004	6	..........a	-327.68
	49	5	-2.26819E-001	-2.76868E-001	-2.51844E-001	5.36094E-008	-8.71572E-008	1.40767E-007	-2.77000E-001	3.53206E-004	6	..........a	-327.68
	50	5.1	-2.24863E-001	-2.74854E-001	-2.49858E-001	5.18815E-008	-8.58013E-008	1.37683E-007	-2.75000E-001	3.46873E-004	6	..........a	-327.68
	51	5.2	-2.22858E-001	-2.72883E-001	-2.47870E-001	4.99413E-008	-8.37787E-008	1.33720E-007	-2.73000E-001	3.43373E-004	6	..........a	-327.68
	52	5.3	-2.20850E-001	-2.70863E-001	-2.45856E-001	4.79010E-008	-8.16151E-008	1.29516E-007	-2.71000E-001	3.47539E-004	6	..........a	-327.68
	53	5.4	-2.18844E-001	-2.68869E-001	-2.43856E-001	4.58658E-008	-7.93879E-008	1.25254E-007	-2.69000E-001	3.61706E-004	6	..........a	-327.68
	54	5.5	-2.16869E-001	-2.66822E-001	-2.41845E-001	4.39405E-008	-7.65115E-008	1.20452E-007	-2.67000E-001	3.57039E-004	6	..........a	-327.68
	55	5.6	-2.14885E-001	-2.64907E-001	-2.39896E-001	4.19192E-008	-7.38768E-008	1.15796E-007	-2.65000E-001	3.68873E-004	6	..........a	-327.68
	56	5.7	-2.12804E-001	-2.62888E-001	-2.37846E-001	4.01287E-008	-7.08284E-008	1.10957E-007	-2.63000E-001	3.61706E-004	6	..........a	-327.68
	57	5.8	-2.10843E-001	-2.60826E-001	-2.35834E-001	3.84125E-008	-6.75697E-008	1.05982E-007	-2.61000E-001	3.73039E-004	6	..........a	-327.68
	58	5.9	-2.08852E-001	-2.58835E-001	-2.33844E-001	3.66866E-008	-6.44086E-008	1.01095E-007	-2.59000E-001	3.65706E-004	6	..........a	-327.68
	59	6	-2.06871E-001	-2.56857E-001	-2.31864E-001	3.49490E-008	-6.11559E-008	9.61049E-008	-2.57000E-001	3.57706E-004	6	..........a	-327.68
	60	6.1	-2.04774E-001	-2.54887E-001	-2.29830E-001	3.35025E-008	-5.76931E-008	9.11956E-008	-2.55000E-001	3.59039E-004	6	..........a	-327.68
	61	6.2	-2.02820E-001	-2.52845E-001	-2.27832E-001	3.20913E-008	-5.47020E-008	8.67934E-008	-2.53000E-001	3.61039E-004	6	..........a	-327.68
	62	6.3	-2.00856E-001	-2.50841E-001	-2.25848E-001	3.06495E-008	-5.15610E-008	8.22105E-008	-2.51000E-001	3.59206E-004	6	..........a	-327.68
	63	6.4	-1.98878E-001	-2.48884E-001	-2.23881E-001	2.93273E-008	-4.88830E-008	7.82103E-008	-2.49000E-001	3.57706E-004	6	..........a	-327.68
	64	6.5	-1.96859E-001	-2.46872E-001	-2.21865E-001	2.83122E-008	-4.62293E-008	7.45415E-008	-2.47000E-001	3.51539E-004	6	..........a	-327.68
	65	6.6	-1.94846E-001	-2.44862E-001	-2.19854E-001	2.69180E-008	-4.32122E-008	7.01303E-008	-2.45000E-001	3.55706E-004	6	..........a	-327.68
	66	6.7	-1.92871E-001	-2.42786E-001	-2.17829E-001	2.61983E-008	-4.07283E-008	6.69265E-008	-2.43000E-001	3.51873E-004	6	..........a	-327.68
	67	6.8	-1.90899E-001	-2.40856E-001	-2.15878E-001	2.51985E-008	-3.83073E-008	6.35058E-008	-2.41000E-001	3.46539E-004	6	..........a	-327.68
	68	6.9	-1.88744E-001	-2.38908E-001	-2.13826E-001	2.44367E-008	-3.58923E-008	6.03290E-008	-2.39000E-001	3.44706E-004	6	..........a	-327.68
	69	7	-1.86828E-001	-2.36843E-001	-2.11836E-001	2.35186E-008	-3.40594E-008	5.75780E-008	-2.37000E-001	3.47873E-004	6	..........a	-327.68
	70	7.1	-1.84880E-001	-2.34822E-001	-2.09851E-001	2.27888E-008	-3.21955E-008	5.49843E-008	-2.35000E-001	3.40039E-004	6	..........a	-327.68
	71	7.2	-1.82865E-001	-2.32850E-001	-2.07857E-001	2.22751E-008	-3.04880E-008	5.27630E-008	-2.33000E-001	3.54706E-004	6	..........a	-327.68
	72	7.3	-1.80776E-001	-2.30867E-001	-2.05822E-001	2.17177E-008	-2.89891E-008	5.07068E-008	-2.31000E-001	3.37706E-004	6	..........a	-327.68
	73	7.4	-1.78820E-001	-2.28784E-001	-2.03802E-001	2.11826E-008	-2.74632E-008	4.86459E-008	-2.29000E-001	3.28039E-004	6	..........a	-327.68
	74	7.5	-1.76847E-001	-2.26826E-001	-2.01836E-001	2.07802E-008	-2.61944E-008	4.69746E-008	-2.27000E-001	3.44539E-004	6	..........a	-327.68
	75	7.6	-1.74878E-001	-2.24855E-001	-1.99866E-001	2.04342E-008	-2.51123E-008	4.55465E-008	-2.25000E-001	3.43039E-004	6	..........a	-327.68
	76	7.7	-1.72843E-001	-2.22863E-001	-1.97853E-001	2.00598E-008	-2.37948E-008	4.38546E-008	-2.23000E-001	3.45206E-004	6	..........a	-327.68
	77	7.8	-1.70822E-001	-2.20856E-001	-1.95839E-001	1.96721E-008	-2.29343E-008	4.26064E-008	-2.21000E-001	3.56873E-004	6	..........a	-327.68
	78	7.9	-1.68851E-001	-2.18856E-001	-1.93854E-001	1.95504E-008	-2.23629E-008	4.19133E-008	-2.19000E-001	3.47206E-004	6	..........a	-327.68
	79	8	-1.66866E-001	-2.16867E-001	-1.91867E-001	1.91790E-008	-2.14485E-008	4.06275E-008	-2.17000E-001	3.57706E-004	6	..........a	-327.68
	80	8.1	-1.64741E-001	-2.14884E-001	-1.89812E-001	1.90200E-008	-2.06287E-008	3.96487E-008	-2.15000E-001	3.53039E-004	6	..........a	-327.68
	81	8.2	-1.62799E-001	-2.12817E-001	-1.87808E-001	1.87886E-008	-2.01807E-008	3.89693E-008	-2.13000E-001	3.45539E-004	6	..........a	-327.68
	82	8.3	-1.60883E-001	-2.10838E-001	-1.85860E-001	1.85636E-008	-1.95356E-008	3.80992E-008	-2.11000E-001	3.47539E-004	6	..........a	-327.68
	83	8.4	-1.58881E-001	-2.08873E-001	-1.83877E-001	1.85839E-008	-1.91645E-008	3.77485E-008	-2.09000E-001	3.58039E-004	6	..........a	-327.68
	84	8.5	-1.56795E-001	-2.06872E-001	-1.81833E-001	1.83679E-008	-1.87765E-008	3.71444E-008	-2.07000E-001	3.53706E-004	6	..........a	-327.68
	85	8.6	-1.54802E-001	-2.04804E-001	-1.79803E-001	1.83869E-008	-1.80804E-008	3.64673E-008	-2.05000E-001	3.50206E-004	6	..........a	-327.68
	86	8.7	-1.52864E-001	-2.02829E-001	-1.77846E-001	1.83706E-008	-1.77527E-008	3.61233E-008	-2.03000E-001	3.57706E-004	6	..........a	-327.68
	87	8.8	-1.50860E-001	-2.00866E-001	-1.75863E-001	1.82482E-008	-1.73946E-008	3.56429E-008	-2.01000E-001	3.55206E-004	6	..........a	-327.68
	88	8.9	-1.48838E-001	-1.98864E-001	-1.73851E-001	1.83046E-008	-1.68992E-008	3.52038E-008	-1.99000E-001	3.44373E-004	6	..........a	-327.68
	89	9	-1.46836E-001	-1.96846E-001	-1.71841E-001	1.82599E-008	-1.65035E-008	3.47634E-008	-1.97000E-001	3.59706E-004	6	..........a	-327.68
	90	9.1	-1.44850E-001	-1.94846E-001	-1.69848E-001	1.82406E-008	-1.65862E-008	3.48268E-008	-1.95000E-001	3.63539E-004	6	..........a	-327.68
	91	9.2	-1.42866E-001	-1.92868E-001	-1.67867E-001	1.81322E-008	-1.64432E-008	3.45754E-008	-1.93000E-001	3.53206E-004	6	..........a	-327.68
	92	9.3	-1.40863E-001	-1.90916E-001	-1.65890E-001	1.81706E-008	-1.60041E-008	3.41747E-008	-1.91000E-001	3.53039E-004	6	..........a	-327.68
	93	9.4	-1.38796E-001	-1.88707E-001	-1.63752E-001	1.82769E-008	-1.57471E-008	3.40240E-008	-1.89000E-001	3.48873E-004	6	..........a	-327.68
	94	9.5	-1.36862E-001	-1.86836E-001	-1.61849E-001	1.81059E-008	-1.54280E-008	3.35339E-008	-1.87000E-001	3.40373E-004	6	..........a	-327.68
	95	9.6	-1.34862E-001	-1.84885E-001	-1.59874E-001	1.81226E-008	-1.54974E-008	3.36199E-008	-1.85000E-001	3.48373E-004	6	..........a	-327.68
	96	9.7	-1.32771E-001	-1.82859E-001	-1.57815E-001	1.81529E-008	-1.51467E-008	3.32996E-008	-1.83000E-001	3.60539E-004	6	..........a	-327.68
	97	9.8	-1.30800E-001	-1.80738E-001	-1.55769E-001	1.81972E-008	-1.49963E-008	3.31936E-008	-1.81000E-001	3.39873E-004	6	..........a	-327.68
	98	9.9	-1.28845E-001	-1.78816E-001	-1.53830E-001	1.81306E-008	-1.48733E-008	3.30039E-008	-1.79000E-001	3.50706E-004	6	..........a	-327.68
	99	10	-1.26868E-001	-1.76848E-001	-1.51858E-001	1.82169E-008	-1.47980E-008	3.30149E-008	-1.77000E-001	3.49873E-004	6	..........a	-327.68
	100	10.1	-1.24807E-001	-1.74871E-001	-1.49839E-001	1.81102E-008	-1.46986E-008	3.28088E-008	-1.75000E-001	3.42873E-004	6	..........a	-327.68
