EXPLAIN
TAG	SQUARE_WAVE
TITLE	LABEL	Square Wave Voltammetry	Test Identifier
DATE	LABEL	8/25/2020	Date
TIME	LABEL	13:34:24	Time
NOTES	NOTES	1	Notes...
	
PSTAT	PSTAT	REF600-24079	Potentiostat
VINIT	QUANT	-3.50000E-001	Initial E (V)
VFINAL	QUANT	-1.50000E-001	Final E (V)
STEPSIZE	QUANT	2.00000E+000	Step Size (mV)
TIMERRES	QUANT	3.33340E-005	&Timer Resolution
FREQUENCY	QUANT	2.50000E+001	Frequency (Hz)
PULSESIZE	QUANT	2.50000E+001	Pulse Size E (mV)
PULSEON	QUANT	4.00000E-002	Pulse &Time (s)
NOISEREJECT	TOGGLE	F	Noise Rejection
AREA	QUANT	2.00000E-002	Sample Area (cm^2)
IMODE	SELECTOR	1	I/E Range Mode
IRANGE	QUANT	1.00000E-003	Max Current (mA)
EQDELAY	IQUANT	10	Equil. Time (s)
IRCOMP	SELECTOR	0	IRComp
PFCOR	QUANT	5.00000E+001	PF Corr. (ohm)
CYCLES	IQUANT	101	C&ycles (#)
ELECTRODETYPE	SELECTOR	0	Electrode Type
STRIPPING	TOGGLE	F	Used for Stripping
POLARITY	TOGGLE	F	Signal Polarity
LINEFREQ	IQUANT	60	Line Frequency (Hz)
INTPERIOD	QUANT	3.3334E-005	Integration Period (s)
SEQUENCER	TOGGLE	TRUE	Run as Sequence
PSTATMODEL	IQUANT	4	Pstat Model
PSTATSECTION	LABEL	REF600-24079	Pstat Section
PSTATSERIALNO	LABEL	24079	Pstat Serial Number
CTRLMODE	IQUANT	1	Control Mode
ELECTROMETER	IQUANT	0	RE=0 or CS=1
IESTAB	IQUANT	2	I/E Stability
CASPEED	IQUANT	6	Control Amp Speed
CONVENTION	IQUANT	1	Current Convention
ICHRANGE	IQUANT	2	Ich Range
ICHRANGEMODE	TOGGLE	F	Ich Auto Range
ICHOFFSETENABLE	TOGGLE	F	Ich Offset Enable
ICHOFFSET	QUANT	0	Ich Offset (V)
ICHFILTER	IQUANT	2	Ich Filter
VCHRANGE	IQUANT	2	Vch Range
VCHRANGEMODE	TOGGLE	F	Vch Auto Range
VCHOFFSETENABLE	TOGGLE	F	Vch Offset Enable
VCHOFFSET	QUANT	0	Vch Offset (V)
VCHFILTER	IQUANT	2	Vch Filter
ACHRANGE	IQUANT	2	Ach Range
ACHOFFSETENABLE	TOGGLE	F	Ach Offset Enable
ACHOFFSET	QUANT	0	Ach Offset (V)
ACHFILTER	IQUANT	1	Ach Filter
IERANGELOWERLIMIT	IQUANT	1	I/E Range Lower Limit
IERANGEMODE	TOGGLE	F	I/E AutoRange
IERANGE	IQUANT	6	I/E Range
POSFEEDENABLE	TOGGLE	F	Positive Feedback IR Comp
POSFEEDRESISTANCE	QUANT	0	Positive Feedback Resistance (ohm)
ACHSELECT	IQUANT	0	Ach Select
SENSECABLEID	IQUANT	13	Sense Cable ID
PWRCABLEID	IQUANT	13	Power Cable ID
DCCALDATE	LABEL	6/30/2020	DC Calibration Date
ACCALDATE	LABEL	6/30/2020	AC Calibration Date
THERMOSELECT	IQUANT	1	Thermo Select
FRAMEWORKVERSION	LABEL	7.8.2	Framework Version
INSTRUMENTVERSION	LABEL	4.40	Instrument Version
CURVE	TABLE	101
	Pt	T	Vfwd	Vrev	Vstep	Ifwd	Irev	Idif	Sig	Ach	IERange	Over	Temp
	#	s	V	V	V	A	A	A	V	V	#	bits	deg C
	0	0.04	-3.24881E-001	-3.75696E-001	-3.50288E-001	-5.12340E-009	-3.39079E-008	2.87845E-008	-3.75000E-001	3.60623E-004	6	..........a	-327.68
	1	0.08	-3.22076E-001	-3.73688E-001	-3.47882E-001	5.74823E-010	-2.21222E-008	2.26971E-008	-3.73000E-001	3.74373E-004	6	..........a	-327.68
	2	0.12	-3.20007E-001	-3.71683E-001	-3.45845E-001	6.70310E-009	-2.05579E-008	2.72610E-008	-3.71000E-001	3.66873E-004	6	..........a	-327.68
	3	0.16	-3.18066E-001	-3.69673E-001	-3.43870E-001	8.83004E-009	-1.86676E-008	2.74977E-008	-3.69000E-001	3.87289E-004	6	..........a	-327.68
	4	0.2	-3.16072E-001	-3.67669E-001	-3.41871E-001	1.29914E-008	-1.74041E-008	3.03955E-008	-3.67000E-001	3.74789E-004	6	..........a	-327.68
	5	0.24	-3.14078E-001	-3.65711E-001	-3.39895E-001	1.47766E-008	-1.75842E-008	3.23608E-008	-3.65000E-001	3.66873E-004	6	..........a	-327.68
	6	0.28	-3.12043E-001	-3.63679E-001	-3.37861E-001	1.73145E-008	-1.64498E-008	3.37643E-008	-3.63000E-001	3.76873E-004	6	..........a	-327.68
	7	0.32	-3.10071E-001	-3.61671E-001	-3.35871E-001	2.02848E-008	-1.76642E-008	3.79490E-008	-3.61000E-001	3.69789E-004	6	..........a	-327.68
	8	0.36	-3.08048E-001	-3.59668E-001	-3.33858E-001	2.23901E-008	-1.70499E-008	3.94400E-008	-3.59000E-001	3.64373E-004	6	..........a	-327.68
	9	0.4	-3.06096E-001	-3.57676E-001	-3.31886E-001	2.63439E-008	-1.73850E-008	4.37289E-008	-3.57000E-001	3.89373E-004	6	..........a	-327.68
	10	0.44	-3.04036E-001	-3.55697E-001	-3.29867E-001	2.85567E-008	-1.84309E-008	4.69876E-008	-3.55000E-001	3.57706E-004	6	..........a	-327.68
	11	0.48	-3.02089E-001	-3.53690E-001	-3.27890E-001	3.18780E-008	-1.78200E-008	4.96980E-008	-3.53000E-001	3.75206E-004	6	..........a	-327.68
	12	0.52	-3.00064E-001	-3.51688E-001	-3.25876E-001	3.56968E-008	-1.95869E-008	5.52837E-008	-3.51000E-001	3.86039E-004	6	..........a	-327.68
	13	0.56	-2.98087E-001	-3.49698E-001	-3.23893E-001	3.89839E-008	-2.11321E-008	6.01160E-008	-3.49000E-001	3.94789E-004	6	..........a	-327.68
	14	0.6	-2.96054E-001	-3.47693E-001	-3.21873E-001	4.37570E-008	-2.16247E-008	6.53816E-008	-3.47000E-001	3.81873E-004	6	..........a	-327.68
	15	0.64	-2.94083E-001	-3.45666E-001	-3.19875E-001	4.71757E-008	-2.36924E-008	7.08682E-008	-3.45000E-001	3.83956E-004	6	..........a	-327.68
	16	0.68	-2.92072E-001	-3.43648E-001	-3.17860E-001	5.14605E-008	-2.37358E-008	7.51962E-008	-3.43000E-001	3.77706E-004	6	..........a	-327.68
	17	0.72	-2.90117E-001	-3.41670E-001	-3.15894E-001	5.64553E-008	-2.69187E-008	8.33739E-008	-3.41000E-001	3.77289E-004	6	..........a	-327.68
	18	0.76	-2.88043E-001	-3.39700E-001	-3.13872E-001	6.00399E-008	-2.83797E-008	8.84196E-008	-3.39000E-001	3.89373E-004	6	..........a	-327.68
	19	0.8	-2.86076E-001	-3.37665E-001	-3.11871E-001	6.60731E-008	-3.00757E-008	9.61489E-008	-3.37000E-001	4.01873E-004	6	..........a	-327.68
	20	0.84	-2.84080E-001	-3.35658E-001	-3.09869E-001	7.06979E-008	-3.37312E-008	1.04429E-007	-3.35000E-001	3.69789E-004	6	..........a	-327.68
	21	0.88	-2.82130E-001	-3.33681E-001	-3.07905E-001	7.53677E-008	-3.48639E-008	1.10232E-007	-3.33000E-001	3.91456E-004	6	..........a	-327.68
	22	0.92	-2.80036E-001	-3.31698E-001	-3.05867E-001	8.23369E-008	-3.87502E-008	1.21087E-007	-3.31000E-001	3.74373E-004	6	..........a	-327.68
	23	0.96	-2.78083E-001	-3.29677E-001	-3.03880E-001	8.70517E-008	-4.20914E-008	1.29143E-007	-3.29000E-001	3.82706E-004	6	..........a	-327.68
	24	1	-2.76090E-001	-3.27666E-001	-3.01878E-001	9.39200E-008	-4.53419E-008	1.39262E-007	-3.27000E-001	3.72289E-004	6	..........a	-327.68
	25	1.04	-2.74116E-001	-3.25677E-001	-2.99896E-001	9.92099E-008	-5.01408E-008	1.49351E-007	-3.25000E-001	3.68956E-004	6	..........a	-327.68
	26	1.08	-2.72074E-001	-3.23690E-001	-2.97882E-001	1.05406E-007	-5.26436E-008	1.58050E-007	-3.23000E-001	3.61873E-004	6	..........a	-327.68
	27	1.12	-2.70084E-001	-3.21666E-001	-2.95875E-001	1.11638E-007	-5.75226E-008	1.69161E-007	-3.21000E-001	3.89789E-004	6	..........a	-327.68
	28	1.16	-2.68139E-001	-3.19663E-001	-2.93901E-001	1.17466E-007	-6.19098E-008	1.79375E-007	-3.19000E-001	3.76456E-004	6	..........a	-327.68
	29	1.2	-2.66131E-001	-3.17685E-001	-2.91908E-001	1.24867E-007	-6.61212E-008	1.90988E-007	-3.17000E-001	3.88123E-004	6	..........a	-327.68
	30	1.24	-2.64098E-001	-3.15706E-001	-2.89902E-001	1.30069E-007	-7.13010E-008	2.01370E-007	-3.15000E-001	3.84373E-004	6	..........a	-327.68
	31	1.28	-2.62106E-001	-3.13692E-001	-2.87899E-001	1.35106E-007	-7.51732E-008	2.10279E-007	-3.13000E-001	3.83123E-004	6	..........a	-327.68
	32	1.32	-2.60118E-001	-3.11612E-001	-2.85865E-001	1.41891E-007	-8.10272E-008	2.22918E-007	-3.11000E-001	3.68956E-004	6	..........a	-327.68
	33	1.36	-2.58122E-001	-3.09670E-001	-2.83896E-001	1.45452E-007	-8.60154E-008	2.31468E-007	-3.09000E-001	3.61039E-004	6	..........a	-327.68
	34	1.4	-2.56082E-001	-3.07647E-001	-2.81865E-001	1.51421E-007	-9.03801E-008	2.41801E-007	-3.07000E-001	3.85206E-004	6	..........a	-327.68
	35	1.44	-2.54073E-001	-3.05656E-001	-2.79865E-001	1.54595E-007	-9.59033E-008	2.50499E-007	-3.05000E-001	3.61039E-004	6	..........a	-327.68
	36	1.48	-2.52133E-001	-3.03626E-001	-2.77879E-001	1.58368E-007	-9.90512E-008	2.57419E-007	-3.03000E-001	3.69789E-004	6	..........a	-327.68
	37	1.52	-2.50136E-001	-3.01678E-001	-2.75907E-001	1.62112E-007	-1.04635E-007	2.66747E-007	-3.01000E-001	3.71873E-004	6	..........a	-327.68
	38	1.56	-2.48096E-001	-2.99654E-001	-2.73875E-001	1.63496E-007	-1.09020E-007	2.72516E-007	-2.99000E-001	3.82706E-004	6	..........a	-327.68
	39	1.6	-2.46092E-001	-2.97650E-001	-2.71871E-001	1.66395E-007	-1.11899E-007	2.78295E-007	-2.97000E-001	3.80206E-004	6	..........a	-327.68
	40	1.64	-2.44119E-001	-2.95631E-001	-2.69875E-001	1.66582E-007	-1.16378E-007	2.82959E-007	-2.95000E-001	3.62289E-004	6	..........a	-327.68
	41	1.68	-2.42157E-001	-2.93680E-001	-2.67918E-001	1.66763E-007	-1.17963E-007	2.84726E-007	-2.93000E-001	3.59789E-004	6	..........a	-327.68
	42	1.72	-2.40051E-001	-2.91632E-001	-2.65842E-001	1.66934E-007	-1.22179E-007	2.89113E-007	-2.91000E-001	3.58539E-004	6	..........a	-327.68
	43	1.76	-2.38086E-001	-2.89649E-001	-2.63867E-001	1.64827E-007	-1.23798E-007	2.88625E-007	-2.89000E-001	3.50206E-004	6	..........a	-327.68
	44	1.8	-2.36131E-001	-2.87598E-001	-2.61865E-001	1.63750E-007	-1.24996E-007	2.88746E-007	-2.87000E-001	3.82289E-004	6	..........a	-327.68
	45	1.84	-2.34110E-001	-2.85653E-001	-2.59882E-001	1.60584E-007	-1.26395E-007	2.86979E-007	-2.85000E-001	3.76456E-004	6	..........a	-327.68
	46	1.88	-2.32034E-001	-2.83623E-001	-2.57828E-001	1.57250E-007	-1.25540E-007	2.82789E-007	-2.83000E-001	3.75623E-004	6	..........a	-327.68
	47	1.92	-2.30058E-001	-2.81624E-001	-2.55841E-001	1.54195E-007	-1.26449E-007	2.80644E-007	-2.81000E-001	3.78123E-004	6	..........a	-327.68
	48	1.96	-2.28071E-001	-2.79581E-001	-2.53826E-001	1.48585E-007	-1.25404E-007	2.73989E-007	-2.79000E-001	3.55206E-004	6	..........a	-327.68
	49	2	-2.26111E-001	-2.77651E-001	-2.51881E-001	1.44560E-007	-1.23166E-007	2.67726E-007	-2.77000E-001	3.70206E-004	6	..........a	-327.68
	50	2.04	-2.24037E-001	-2.75624E-001	-2.49830E-001	1.38686E-007	-1.22293E-007	2.60979E-007	-2.75000E-001	3.66039E-004	6	..........a	-327.68
	51	2.08	-2.22046E-001	-2.73622E-001	-2.47834E-001	1.33230E-007	-1.18834E-007	2.52064E-007	-2.73000E-001	3.66873E-004	6	..........a	-327.68
	52	2.12	-2.20064E-001	-2.71592E-001	-2.45828E-001	1.27631E-007	-1.16498E-007	2.44129E-007	-2.71000E-001	3.71456E-004	6	..........a	-327.68
	53	2.16	-2.18057E-001	-2.69623E-001	-2.43840E-001	1.21150E-007	-1.13301E-007	2.34451E-007	-2.69000E-001	3.65206E-004	6	..........a	-327.68
	54	2.2	-2.15971E-001	-2.67600E-001	-2.41785E-001	1.16196E-007	-1.08954E-007	2.25150E-007	-2.67000E-001	3.78123E-004	6	..........a	-327.68
	55	2.24	-2.14062E-001	-2.65600E-001	-2.39831E-001	1.08387E-007	-1.05807E-007	2.14194E-007	-2.65000E-001	3.71456E-004	6	..........a	-327.68
	56	2.28	-2.12057E-001	-2.63590E-001	-2.37823E-001	1.02337E-007	-1.00863E-007	2.03200E-007	-2.63000E-001	3.85623E-004	6	..........a	-327.68
	57	2.32	-2.10092E-001	-2.61626E-001	-2.35859E-001	9.66145E-008	-9.68884E-008	1.93503E-007	-2.61000E-001	3.86039E-004	6	..........a	-327.68
	58	2.36	-2.08002E-001	-2.59591E-001	-2.33797E-001	8.93420E-008	-9.26745E-008	1.82016E-007	-2.59000E-001	3.55623E-004	6	..........a	-327.68
	59	2.4	-2.06043E-001	-2.57582E-001	-2.31812E-001	8.45155E-008	-8.67821E-008	1.71298E-007	-2.57000E-001	3.73539E-004	6	..........a	-327.68
	60	2.44	-2.04066E-001	-2.55563E-001	-2.29814E-001	7.79022E-008	-8.33834E-008	1.61286E-007	-2.55000E-001	3.58123E-004	6	..........a	-327.68
	61	2.48	-2.02087E-001	-2.53635E-001	-2.27861E-001	7.19989E-008	-7.72309E-008	1.49230E-007	-2.53000E-001	3.83123E-004	6	..........a	-327.68
	62	2.52	-2.00041E-001	-2.51593E-001	-2.25817E-001	6.68441E-008	-7.28112E-008	1.39655E-007	-2.51000E-001	3.96873E-004	6	..........a	-327.68
	63	2.56	-1.98068E-001	-2.49605E-001	-2.23836E-001	6.07141E-008	-6.81698E-008	1.28884E-007	-2.49000E-001	3.63956E-004	6	..........a	-327.68
	64	2.6	-1.96063E-001	-2.47580E-001	-2.21822E-001	5.72312E-008	-6.27099E-008	1.19941E-007	-2.47000E-001	3.88956E-004	6	..........a	-327.68
	65	2.64	-1.94071E-001	-2.45613E-001	-2.19842E-001	5.14788E-008	-5.84602E-008	1.09939E-007	-2.45000E-001	3.84789E-004	6	..........a	-327.68
	66	2.68	-1.91998E-001	-2.43576E-001	-2.17787E-001	4.70732E-008	-5.31570E-008	1.00230E-007	-2.43000E-001	3.87289E-004	6	..........a	-327.68
	67	2.72	-1.90059E-001	-2.41568E-001	-2.15814E-001	4.32511E-008	-4.94782E-008	9.27293E-008	-2.41000E-001	3.78956E-004	6	..........a	-327.68
	68	2.76	-1.88058E-001	-2.39560E-001	-2.13809E-001	3.83105E-008	-4.56719E-008	8.39823E-008	-2.39000E-001	3.63956E-004	6	..........a	-327.68
	69	2.8	-1.86108E-001	-2.37640E-001	-2.11874E-001	3.63894E-008	-4.07488E-008	7.71381E-008	-2.37000E-001	3.59373E-004	6	..........a	-327.68
	70	2.84	-1.84013E-001	-2.35593E-001	-2.09803E-001	3.19221E-008	-3.74758E-008	6.93980E-008	-2.35000E-001	3.63123E-004	6	..........a	-327.68
	71	2.88	-1.82056E-001	-2.33567E-001	-2.07811E-001	2.88209E-008	-3.26469E-008	6.14678E-008	-2.33000E-001	3.91873E-004	6	..........a	-327.68
	72	2.92	-1.80054E-001	-2.31566E-001	-2.05810E-001	2.65065E-008	-3.00541E-008	5.65605E-008	-2.31000E-001	3.76456E-004	6	..........a	-327.68
	73	2.96	-1.78072E-001	-2.29634E-001	-2.03853E-001	2.25701E-008	-2.66986E-008	4.92688E-008	-2.29000E-001	3.69789E-004	6	..........a	-327.68
	74	3	-1.76050E-001	-2.27609E-001	-2.01829E-001	2.16350E-008	-2.29248E-008	4.45598E-008	-2.27000E-001	3.83539E-004	6	..........a	-327.68
	75	3.04	-1.74074E-001	-2.25596E-001	-1.99835E-001	1.85529E-008	-2.08904E-008	3.94433E-008	-2.25000E-001	3.76039E-004	6	..........a	-327.68
	76	3.08	-1.72077E-001	-2.23596E-001	-1.97836E-001	1.65719E-008	-1.66865E-008	3.32584E-008	-2.23000E-001	3.87706E-004	6	..........a	-327.68
	77	3.12	-1.70084E-001	-2.21598E-001	-1.95841E-001	1.55942E-008	-1.45146E-008	3.01088E-008	-2.21000E-001	3.84373E-004	6	..........a	-327.68
	78	3.16	-1.68063E-001	-2.19613E-001	-1.93838E-001	1.27905E-008	-1.25377E-008	2.53282E-008	-2.19000E-001	3.64789E-004	6	..........a	-327.68
	79	3.2	-1.66105E-001	-2.17588E-001	-1.91847E-001	1.26497E-008	-9.15475E-009	2.18044E-008	-2.17000E-001	3.89789E-004	6	..........a	-327.68
	80	3.24	-1.64065E-001	-2.15564E-001	-1.89815E-001	1.03811E-008	-8.22463E-009	1.86057E-008	-2.15000E-001	3.96873E-004	6	..........a	-327.68
	81	3.28	-1.62114E-001	-2.13619E-001	-1.87866E-001	8.95422E-009	-4.57667E-009	1.35309E-008	-2.13000E-001	3.96039E-004	6	..........a	-327.68
	82	3.32	-1.60074E-001	-2.11616E-001	-1.85845E-001	8.53584E-009	-3.87158E-009	1.24074E-008	-2.11000E-001	3.81039E-004	6	..........a	-327.68
	83	3.36	-1.58076E-001	-2.09594E-001	-1.83835E-001	6.69727E-009	-2.22303E-009	8.92030E-009	-2.09000E-001	3.89373E-004	6	..........a	-327.68
	84	3.4	-1.56075E-001	-2.07578E-001	-1.81827E-001	7.35902E-009	3.87299E-010	6.97172E-009	-2.07000E-001	3.81039E-004	6	..........a	-327.68
	85	3.44	-1.54075E-001	-2.05607E-001	-1.79841E-001	5.93634E-009	4.67309E-010	5.46903E-009	-2.05000E-001	3.53956E-004	6	..........a	-327.68
	86	3.48	-1.52074E-001	-2.03633E-001	-1.77854E-001	5.03539E-009	3.74606E-009	1.28933E-009	-2.03000E-001	3.69789E-004	6	..........a	-327.68
	87	3.52	-1.50090E-001	-2.01612E-001	-1.75851E-001	5.05123E-009	3.33351E-009	1.71772E-009	-2.01000E-001	3.81873E-004	6	..........a	-327.68
	88	3.56	-1.48082E-001	-1.99615E-001	-1.73848E-001	3.42435E-009	5.22791E-009	-1.80356E-009	-1.99000E-001	3.84373E-004	6	..........a	-327.68
	89	3.6	-1.46088E-001	-1.97621E-001	-1.71855E-001	3.95525E-009	7.33402E-009	-3.37876E-009	-1.97000E-001	3.96456E-004	6	..........a	-327.68
	90	3.64	-1.44071E-001	-1.95608E-001	-1.69840E-001	3.12265E-009	6.76894E-009	-3.64630E-009	-1.95000E-001	3.79373E-004	6	..........a	-327.68
	91	3.68	-1.42104E-001	-1.93606E-001	-1.67855E-001	2.72843E-009	9.38344E-009	-6.65501E-009	-1.93000E-001	3.76873E-004	6	..........a	-327.68
	92	3.72	-1.40105E-001	-1.91618E-001	-1.65862E-001	2.85678E-009	9.61597E-009	-6.75919E-009	-1.91000E-001	3.77289E-004	6	..........a	-327.68
	93	3.76	-1.38068E-001	-1.89600E-001	-1.63834E-001	1.60329E-009	1.04869E-008	-8.88363E-009	-1.89000E-001	3.59373E-004	6	..........a	-327.68
	94	3.8	-1.36097E-001	-1.87633E-001	-1.61865E-001	2.76844E-009	1.14254E-008	-8.65693E-009	-1.87000E-001	3.79373E-004	6	..........a	-327.68
	95	3.84	-1.34113E-001	-1.85623E-001	-1.59868E-001	1.48994E-009	1.13887E-008	-9.89876E-009	-1.85000E-001	3.60206E-004	6	..........a	-327.68
	96	3.88	-1.32083E-001	-1.83569E-001	-1.57826E-001	1.73247E-009	1.28105E-008	-1.10781E-008	-1.83000E-001	3.69373E-004	6	..........a	-327.68
	97	3.92	-1.30078E-001	-1.81582E-001	-1.55830E-001	2.05251E-009	1.34240E-008	-1.13714E-008	-1.81000E-001	3.76039E-004	6	..........a	-327.68
	98	3.96	-1.28076E-001	-1.79580E-001	-1.53828E-001	1.01821E-009	1.37615E-008	-1.27433E-008	-1.79000E-001	3.85623E-004	6	..........a	-327.68
	99	4	-1.26094E-001	-1.77592E-001	-1.51843E-001	2.54674E-009	1.49158E-008	-1.23691E-008	-1.77000E-001	3.78539E-004	6	..........a	-327.68
	100	4.04	-1.24069E-001	-1.75598E-001	-1.49834E-001	1.52244E-009	1.42724E-008	-1.27500E-008	-1.75000E-001	3.94373E-004	6	..........a	-327.68
