EXPLAIN
TAG	SQUARE_WAVE
TITLE	LABEL	Square Wave Voltammetry	Test Identifier
DATE	LABEL	8/31/2020	Date
TIME	LABEL	14:53:01	Time
NOTES	NOTES	1	Notes...
	
PSTAT	PSTAT	REF600-24079	Potentiostat
VINIT	QUANT	-3.50000E-001	Initial E (V)
VFINAL	QUANT	-1.50000E-001	Final E (V)
STEPSIZE	QUANT	2.00000E+000	Step Size (mV)
TIMERRES	QUANT	3.33340E-005	&Timer Resolution
FREQUENCY	QUANT	1.00000E+001	Frequency (Hz)
PULSESIZE	QUANT	2.50000E+001	Pulse Size E (mV)
PULSEON	QUANT	1.00000E-001	Pulse &Time (s)
NOISEREJECT	TOGGLE	F	Noise Rejection
AREA	QUANT	2.00000E-002	Sample Area (cm^2)
IMODE	SELECTOR	1	I/E Range Mode
IRANGE	QUANT	1.00000E-003	Max Current (mA)
EQDELAY	IQUANT	10	Equil. Time (s)
IRCOMP	SELECTOR	0	IRComp
PFCOR	QUANT	5.00000E+001	PF Corr. (ohm)
CYCLES	IQUANT	101	C&ycles (#)
ELECTRODETYPE	SELECTOR	0	Electrode Type
STRIPPING	TOGGLE	F	Used for Stripping
POLARITY	TOGGLE	F	Signal Polarity
LINEFREQ	IQUANT	60	Line Frequency (Hz)
INTPERIOD	QUANT	3.3334E-005	Integration Period (s)
SEQUENCER	TOGGLE	TRUE	Run as Sequence
PSTATMODEL	IQUANT	4	Pstat Model
PSTATSECTION	LABEL	REF600-24079	Pstat Section
PSTATSERIALNO	LABEL	24079	Pstat Serial Number
CTRLMODE	IQUANT	1	Control Mode
ELECTROMETER	IQUANT	0	RE=0 or CS=1
IESTAB	IQUANT	2	I/E Stability
CASPEED	IQUANT	6	Control Amp Speed
CONVENTION	IQUANT	1	Current Convention
ICHRANGE	IQUANT	2	Ich Range
ICHRANGEMODE	TOGGLE	F	Ich Auto Range
ICHOFFSETENABLE	TOGGLE	F	Ich Offset Enable
ICHOFFSET	QUANT	0	Ich Offset (V)
ICHFILTER	IQUANT	2	Ich Filter
VCHRANGE	IQUANT	2	Vch Range
VCHRANGEMODE	TOGGLE	F	Vch Auto Range
VCHOFFSETENABLE	TOGGLE	F	Vch Offset Enable
VCHOFFSET	QUANT	0	Vch Offset (V)
VCHFILTER	IQUANT	2	Vch Filter
ACHRANGE	IQUANT	2	Ach Range
ACHOFFSETENABLE	TOGGLE	F	Ach Offset Enable
ACHOFFSET	QUANT	0	Ach Offset (V)
ACHFILTER	IQUANT	1	Ach Filter
IERANGELOWERLIMIT	IQUANT	1	I/E Range Lower Limit
IERANGEMODE	TOGGLE	F	I/E AutoRange
IERANGE	IQUANT	6	I/E Range
POSFEEDENABLE	TOGGLE	F	Positive Feedback IR Comp
POSFEEDRESISTANCE	QUANT	0	Positive Feedback Resistance (ohm)
ACHSELECT	IQUANT	0	Ach Select
SENSECABLEID	IQUANT	13	Sense Cable ID
PWRCABLEID	IQUANT	13	Power Cable ID
DCCALDATE	LABEL	6/30/2020	DC Calibration Date
ACCALDATE	LABEL	6/30/2020	AC Calibration Date
THERMOSELECT	IQUANT	1	Thermo Select
FRAMEWORKVERSION	LABEL	7.8.2	Framework Version
INSTRUMENTVERSION	LABEL	4.40	Instrument Version
CURVE	TABLE	101
	Pt	T	Vfwd	Vrev	Vstep	Ifwd	Irev	Idif	Sig	Ach	IERange	Over	Temp
	#	s	V	V	V	A	A	A	V	V	#	bits	deg C
	0	0.1	-3.24843E-001	-3.74868E-001	-3.49856E-001	-1.39325E-008	-4.88660E-008	3.49334E-008	-3.75000E-001	3.61706E-004	6	..........a	-327.68
	1	0.2	-3.22838E-001	-3.72882E-001	-3.47860E-001	3.40960E-010	-4.34696E-008	4.38106E-008	-3.73000E-001	3.53373E-004	6	..........a	-327.68
	2	0.3	-3.20875E-001	-3.70795E-001	-3.45835E-001	3.01330E-009	-4.12423E-008	4.42556E-008	-3.71000E-001	3.51039E-004	6	..........a	-327.68
	3	0.4	-3.18886E-001	-3.68888E-001	-3.43887E-001	4.44348E-009	-4.01599E-008	4.46033E-008	-3.69000E-001	3.52039E-004	6	..........a	-327.68
	4	0.5	-3.16765E-001	-3.66912E-001	-3.41839E-001	5.67264E-009	-3.91427E-008	4.48154E-008	-3.67000E-001	3.62039E-004	6	..........a	-327.68
	5	0.6	-3.14872E-001	-3.64779E-001	-3.39826E-001	6.89379E-009	-3.83740E-008	4.52678E-008	-3.65000E-001	3.46373E-004	6	..........a	-327.68
	6	0.7	-3.12862E-001	-3.62817E-001	-3.37839E-001	7.89125E-009	-3.80449E-008	4.59362E-008	-3.63000E-001	3.49873E-004	6	..........a	-327.68
	7	0.8	-3.10865E-001	-3.60851E-001	-3.35858E-001	8.81937E-009	-3.73918E-008	4.62112E-008	-3.61000E-001	3.53373E-004	6	..........a	-327.68
	8	0.9	-3.08798E-001	-3.58836E-001	-3.33817E-001	9.57680E-009	-3.69218E-008	4.64986E-008	-3.59000E-001	3.53206E-004	6	..........a	-327.68
	9	1	-3.06796E-001	-3.56815E-001	-3.31805E-001	1.04352E-008	-3.65821E-008	4.70173E-008	-3.57000E-001	3.44373E-004	6	..........a	-327.68
	10	1.1	-3.04851E-001	-3.54818E-001	-3.29834E-001	1.12483E-008	-3.62240E-008	4.74724E-008	-3.55000E-001	3.50373E-004	6	..........a	-327.68
	11	1.2	-3.02879E-001	-3.52875E-001	-3.27877E-001	1.24035E-008	-3.61443E-008	4.85478E-008	-3.53000E-001	3.61373E-004	6	..........a	-327.68
	12	1.3	-3.00839E-001	-3.50870E-001	-3.25855E-001	1.36246E-008	-3.61203E-008	4.97450E-008	-3.51000E-001	3.51539E-004	6	..........a	-327.68
	13	1.4	-2.98824E-001	-3.48862E-001	-3.23843E-001	1.49488E-008	-3.63580E-008	5.13069E-008	-3.49000E-001	3.49873E-004	6	..........a	-327.68
	14	1.5	-2.96878E-001	-3.46849E-001	-3.21864E-001	1.59779E-008	-3.62594E-008	5.22373E-008	-3.47000E-001	3.60539E-004	6	..........a	-327.68
	15	1.6	-2.94876E-001	-3.44834E-001	-3.19855E-001	1.69757E-008	-3.64671E-008	5.34428E-008	-3.45000E-001	3.54039E-004	6	..........a	-327.68
	16	1.7	-2.92777E-001	-3.42854E-001	-3.17816E-001	1.86343E-008	-3.65464E-008	5.51807E-008	-3.43000E-001	3.46206E-004	6	..........a	-327.68
	17	1.8	-2.90812E-001	-3.40836E-001	-3.15824E-001	1.99761E-008	-3.70128E-008	5.69889E-008	-3.41000E-001	3.62539E-004	6	..........a	-327.68
	18	1.9	-2.88901E-001	-3.38831E-001	-3.13866E-001	2.15683E-008	-3.75632E-008	5.91315E-008	-3.39000E-001	3.47039E-004	6	..........a	-327.68
	19	2	-2.86868E-001	-3.36856E-001	-3.11862E-001	2.35769E-008	-3.80063E-008	6.15832E-008	-3.37000E-001	3.68539E-004	6	..........a	-327.68
	20	2.1	-2.84805E-001	-3.34864E-001	-3.09834E-001	2.52731E-008	-3.86297E-008	6.39028E-008	-3.35000E-001	3.66039E-004	6	..........a	-327.68
	21	2.2	-2.82812E-001	-3.32747E-001	-3.07780E-001	2.74317E-008	-3.93648E-008	6.67965E-008	-3.33000E-001	3.71206E-004	6	..........a	-327.68
	22	2.3	-2.80893E-001	-3.30824E-001	-3.05858E-001	2.97630E-008	-4.05032E-008	7.02663E-008	-3.31000E-001	3.71706E-004	6	..........a	-327.68
	23	2.4	-2.78848E-001	-3.28859E-001	-3.03853E-001	3.16516E-008	-4.17177E-008	7.33693E-008	-3.29000E-001	3.55539E-004	6	..........a	-327.68
	24	2.5	-2.76812E-001	-3.26857E-001	-3.01835E-001	3.39092E-008	-4.28922E-008	7.68014E-008	-3.27000E-001	3.81206E-004	6	..........a	-327.68
	25	2.6	-2.74828E-001	-3.24864E-001	-2.99846E-001	3.63915E-008	-4.41770E-008	8.05686E-008	-3.25000E-001	3.84539E-004	6	..........a	-327.68
	26	2.7	-2.72870E-001	-3.22851E-001	-2.97860E-001	3.90426E-008	-4.59363E-008	8.49788E-008	-3.23000E-001	3.82039E-004	6	..........a	-327.68
	27	2.8	-2.70880E-001	-3.20869E-001	-2.95875E-001	4.14709E-008	-4.76728E-008	8.91437E-008	-3.21000E-001	3.63206E-004	6	..........a	-327.68
	28	2.9	-2.68863E-001	-3.18872E-001	-2.93867E-001	4.40315E-008	-4.94630E-008	9.34946E-008	-3.19000E-001	3.91873E-004	6	..........a	-327.68
	29	3	-2.66800E-001	-3.16770E-001	-2.91785E-001	4.65065E-008	-5.15213E-008	9.80278E-008	-3.17000E-001	3.83206E-004	6	..........a	-327.68
	30	3.1	-2.64865E-001	-3.14872E-001	-2.89868E-001	4.90752E-008	-5.37009E-008	1.02776E-007	-3.15000E-001	3.87206E-004	6	..........a	-327.68
	31	3.2	-2.62870E-001	-3.12866E-001	-2.87868E-001	5.13444E-008	-5.58742E-008	1.07219E-007	-3.13000E-001	3.90706E-004	6	..........a	-327.68
	32	3.3	-2.60804E-001	-3.10851E-001	-2.85828E-001	5.37331E-008	-5.84315E-008	1.12165E-007	-3.11000E-001	3.80206E-004	6	..........a	-327.68
	33	3.4	-2.58795E-001	-3.08840E-001	-2.83817E-001	5.58343E-008	-6.08042E-008	1.16639E-007	-3.09000E-001	3.73539E-004	6	..........a	-327.68
	34	3.5	-2.56837E-001	-3.06838E-001	-2.81838E-001	5.75986E-008	-6.33038E-008	1.20902E-007	-3.07000E-001	3.76873E-004	6	..........a	-327.68
	35	3.6	-2.54878E-001	-3.04886E-001	-2.79882E-001	5.92331E-008	-6.60141E-008	1.25247E-007	-3.05000E-001	3.75206E-004	6	..........a	-327.68
	36	3.7	-2.52817E-001	-3.02891E-001	-2.77854E-001	6.08783E-008	-6.87965E-008	1.29675E-007	-3.03000E-001	3.83539E-004	6	..........a	-327.68
	37	3.8	-2.50824E-001	-3.00873E-001	-2.75849E-001	6.16951E-008	-7.09785E-008	1.32674E-007	-3.01000E-001	3.56873E-004	6	..........a	-327.68
	38	3.9	-2.48848E-001	-2.98858E-001	-2.73853E-001	6.28592E-008	-7.33978E-008	1.36257E-007	-2.99000E-001	3.77706E-004	6	..........a	-327.68
	39	4	-2.46852E-001	-2.96878E-001	-2.71865E-001	6.33050E-008	-7.56060E-008	1.38911E-007	-2.97000E-001	3.75539E-004	6	..........a	-327.68
	40	4.1	-2.44854E-001	-2.94876E-001	-2.69865E-001	6.33953E-008	-7.78503E-008	1.41246E-007	-2.95000E-001	3.83539E-004	6	..........a	-327.68
	41	4.2	-2.42750E-001	-2.92765E-001	-2.67758E-001	6.33663E-008	-7.96132E-008	1.42980E-007	-2.93000E-001	3.65706E-004	6	..........a	-327.68
	42	4.3	-2.40856E-001	-2.90819E-001	-2.65837E-001	6.31590E-008	-8.13851E-008	1.44544E-007	-2.91000E-001	3.62873E-004	6	..........a	-327.68
	43	4.4	-2.38880E-001	-2.88896E-001	-2.63888E-001	6.23742E-008	-8.25199E-008	1.44894E-007	-2.89000E-001	3.68873E-004	6	..........a	-327.68
	44	4.5	-2.36786E-001	-2.86876E-001	-2.61831E-001	6.16067E-008	-8.33410E-008	1.44948E-007	-2.87000E-001	3.72039E-004	6	..........a	-327.68
	45	4.6	-2.34794E-001	-2.84811E-001	-2.59803E-001	6.05723E-008	-8.41835E-008	1.44756E-007	-2.85000E-001	3.65206E-004	6	..........a	-327.68
	46	4.7	-2.32816E-001	-2.82826E-001	-2.57821E-001	5.92898E-008	-8.44675E-008	1.43757E-007	-2.83000E-001	3.66873E-004	6	..........a	-327.68
	47	4.8	-2.30825E-001	-2.80893E-001	-2.55859E-001	5.79143E-008	-8.43451E-008	1.42259E-007	-2.81000E-001	3.55706E-004	6	..........a	-327.68
	48	4.9	-2.28765E-001	-2.78866E-001	-2.53816E-001	5.61991E-008	-8.39934E-008	1.40192E-007	-2.79000E-001	3.57039E-004	6	..........a	-327.68
	49	5	-2.26801E-001	-2.76865E-001	-2.51833E-001	5.46582E-008	-8.26766E-008	1.37335E-007	-2.77000E-001	3.65706E-004	6	..........a	-327.68
	50	5.1	-2.24852E-001	-2.74843E-001	-2.49847E-001	5.29033E-008	-8.16758E-008	1.34579E-007	-2.75000E-001	3.68706E-004	6	..........a	-327.68
	51	5.2	-2.22843E-001	-2.72873E-001	-2.47858E-001	5.12818E-008	-7.97922E-008	1.31074E-007	-2.73000E-001	3.75206E-004	6	..........a	-327.68
	52	5.3	-2.20834E-001	-2.70864E-001	-2.45849E-001	4.93245E-008	-7.79877E-008	1.27312E-007	-2.71000E-001	3.80206E-004	6	..........a	-327.68
	53	5.4	-2.18838E-001	-2.68871E-001	-2.43854E-001	4.75426E-008	-7.60161E-008	1.23559E-007	-2.69000E-001	3.81206E-004	6	..........a	-327.68
	54	5.5	-2.16881E-001	-2.66817E-001	-2.41849E-001	4.57054E-008	-7.34404E-008	1.19146E-007	-2.67000E-001	3.79039E-004	6	..........a	-327.68
	55	5.6	-2.14854E-001	-2.64879E-001	-2.39866E-001	4.39232E-008	-7.08598E-008	1.14783E-007	-2.65000E-001	3.86706E-004	6	..........a	-327.68
	56	5.7	-2.12798E-001	-2.62871E-001	-2.37835E-001	4.23936E-008	-6.80331E-008	1.10427E-007	-2.63000E-001	3.69873E-004	6	..........a	-327.68
	57	5.8	-2.10821E-001	-2.60780E-001	-2.35800E-001	4.05981E-008	-6.51370E-008	1.05735E-007	-2.61000E-001	3.86039E-004	6	..........a	-327.68
	58	5.9	-2.08853E-001	-2.58820E-001	-2.33836E-001	3.90836E-008	-6.22497E-008	1.01333E-007	-2.59000E-001	3.85373E-004	6	..........a	-327.68
	59	6	-2.06845E-001	-2.56857E-001	-2.31851E-001	3.75364E-008	-5.90493E-008	9.65856E-008	-2.57000E-001	3.75373E-004	6	..........a	-327.68
	60	6.1	-2.04758E-001	-2.54866E-001	-2.29812E-001	3.59928E-008	-5.61316E-008	9.21244E-008	-2.55000E-001	3.87373E-004	6	..........a	-327.68
	61	6.2	-2.02812E-001	-2.52837E-001	-2.27824E-001	3.44580E-008	-5.31649E-008	8.76228E-008	-2.53000E-001	3.84039E-004	6	..........a	-327.68
	62	6.3	-2.00853E-001	-2.50841E-001	-2.25847E-001	3.33472E-008	-5.03922E-008	8.37393E-008	-2.51000E-001	3.79706E-004	6	..........a	-327.68
	63	6.4	-1.98857E-001	-2.48869E-001	-2.23863E-001	3.21370E-008	-4.76491E-008	7.97861E-008	-2.49000E-001	3.64373E-004	6	..........a	-327.68
	64	6.5	-1.96842E-001	-2.46870E-001	-2.21856E-001	3.10729E-008	-4.50385E-008	7.61113E-008	-2.47000E-001	3.57039E-004	6	..........a	-327.68
	65	6.6	-1.94836E-001	-2.44856E-001	-2.19846E-001	3.02634E-008	-4.24822E-008	7.27456E-008	-2.45000E-001	3.86039E-004	6	..........a	-327.68
	66	6.7	-1.92864E-001	-2.42785E-001	-2.17824E-001	2.92676E-008	-3.98515E-008	6.91191E-008	-2.43000E-001	3.68873E-004	6	..........a	-327.68
	67	6.8	-1.90888E-001	-2.40856E-001	-2.15872E-001	2.83782E-008	-3.76449E-008	6.60231E-008	-2.41000E-001	3.62706E-004	6	..........a	-327.68
	68	6.9	-1.88746E-001	-2.38892E-001	-2.13819E-001	2.74611E-008	-3.53899E-008	6.28510E-008	-2.39000E-001	3.64873E-004	6	..........a	-327.68
	69	7	-1.86821E-001	-2.36818E-001	-2.11820E-001	2.66016E-008	-3.34510E-008	6.00526E-008	-2.37000E-001	3.58539E-004	6	..........a	-327.68
	70	7.1	-1.84852E-001	-2.34815E-001	-2.09833E-001	2.60386E-008	-3.16408E-008	5.76793E-008	-2.35000E-001	3.53373E-004	6	..........a	-327.68
	71	7.2	-1.82831E-001	-2.32834E-001	-2.07832E-001	2.53605E-008	-3.00862E-008	5.54467E-008	-2.33000E-001	3.71039E-004	6	..........a	-327.68
	72	7.3	-1.80814E-001	-2.30836E-001	-2.05825E-001	2.50101E-008	-2.85287E-008	5.35388E-008	-2.31000E-001	3.60039E-004	6	..........a	-327.68
	73	7.4	-1.78809E-001	-2.28800E-001	-2.03805E-001	2.46424E-008	-2.69782E-008	5.16206E-008	-2.29000E-001	3.59539E-004	6	..........a	-327.68
	74	7.5	-1.76860E-001	-2.26829E-001	-2.01845E-001	2.41000E-008	-2.58724E-008	4.99724E-008	-2.27000E-001	3.78373E-004	6	..........a	-327.68
	75	7.6	-1.74863E-001	-2.24860E-001	-1.99861E-001	2.35906E-008	-2.47712E-008	4.83618E-008	-2.25000E-001	3.72706E-004	6	..........a	-327.68
	76	7.7	-1.72821E-001	-2.22861E-001	-1.97841E-001	2.32455E-008	-2.37634E-008	4.70090E-008	-2.23000E-001	3.71039E-004	6	..........a	-327.68
	77	7.8	-1.70820E-001	-2.20853E-001	-1.95836E-001	2.31892E-008	-2.29443E-008	4.61335E-008	-2.21000E-001	3.83373E-004	6	..........a	-327.68
	78	7.9	-1.68851E-001	-2.18852E-001	-1.93851E-001	2.30809E-008	-2.19405E-008	4.50214E-008	-2.19000E-001	3.75373E-004	6	..........a	-327.68
	79	8	-1.66856E-001	-2.16874E-001	-1.91865E-001	2.25435E-008	-2.12435E-008	4.37869E-008	-2.17000E-001	3.71873E-004	6	..........a	-327.68
	80	8.1	-1.64718E-001	-2.14869E-001	-1.89793E-001	2.24718E-008	-2.05680E-008	4.30398E-008	-2.15000E-001	3.69039E-004	6	..........a	-327.68
	81	8.2	-1.62798E-001	-2.12858E-001	-1.87828E-001	2.24424E-008	-2.00020E-008	4.24444E-008	-2.13000E-001	3.58373E-004	6	..........a	-327.68
	82	8.3	-1.60872E-001	-2.10824E-001	-1.85848E-001	2.22637E-008	-1.92955E-008	4.15593E-008	-2.11000E-001	3.74373E-004	6	..........a	-327.68
	83	8.4	-1.58843E-001	-2.08858E-001	-1.83850E-001	2.21047E-008	-1.89308E-008	4.10356E-008	-2.09000E-001	3.76539E-004	6	..........a	-327.68
	84	8.5	-1.56771E-001	-2.06854E-001	-1.81813E-001	2.21624E-008	-1.83491E-008	4.05115E-008	-2.07000E-001	3.57706E-004	6	..........a	-327.68
	85	8.6	-1.54802E-001	-2.04801E-001	-1.79801E-001	2.22004E-008	-1.80664E-008	4.02668E-008	-2.05000E-001	3.65873E-004	6	..........a	-327.68
	86	8.7	-1.52854E-001	-2.02821E-001	-1.77837E-001	2.21204E-008	-1.77220E-008	3.98424E-008	-2.03000E-001	3.79706E-004	6	..........a	-327.68
	87	8.8	-1.50846E-001	-2.00855E-001	-1.75850E-001	2.20801E-008	-1.72556E-008	3.93357E-008	-2.01000E-001	3.63373E-004	6	..........a	-327.68
	88	8.9	-1.48820E-001	-1.98869E-001	-1.73844E-001	2.19414E-008	-1.70693E-008	3.90106E-008	-1.99000E-001	3.63539E-004	6	..........a	-327.68
	89	9	-1.46821E-001	-1.96834E-001	-1.71828E-001	2.19494E-008	-1.65279E-008	3.84772E-008	-1.97000E-001	3.57706E-004	6	..........a	-327.68
	90	9.1	-1.44839E-001	-1.94832E-001	-1.69835E-001	2.19307E-008	-1.64152E-008	3.83459E-008	-1.95000E-001	3.45039E-004	6	..........a	-327.68
	91	9.2	-1.42867E-001	-1.92854E-001	-1.67861E-001	2.20447E-008	-1.62078E-008	3.82525E-008	-1.93000E-001	3.64373E-004	6	..........a	-327.68
	92	9.3	-1.40838E-001	-1.90886E-001	-1.65862E-001	2.20697E-008	-1.59108E-008	3.79805E-008	-1.91000E-001	3.74873E-004	6	..........a	-327.68
	93	9.4	-1.38798E-001	-1.88711E-001	-1.63755E-001	2.19387E-008	-1.57221E-008	3.76608E-008	-1.89000E-001	3.81206E-004	6	..........a	-327.68
	94	9.5	-1.36841E-001	-1.86830E-001	-1.61835E-001	2.20071E-008	-1.54257E-008	3.74328E-008	-1.87000E-001	3.65373E-004	6	..........a	-327.68
	95	9.6	-1.34855E-001	-1.84870E-001	-1.59862E-001	2.20601E-008	-1.53367E-008	3.73968E-008	-1.85000E-001	3.68373E-004	6	..........a	-327.68
	96	9.7	-1.32770E-001	-1.82842E-001	-1.57806E-001	2.21294E-008	-1.51987E-008	3.73281E-008	-1.83000E-001	3.68206E-004	6	..........a	-327.68
	97	9.8	-1.30794E-001	-1.80768E-001	-1.55781E-001	2.22074E-008	-1.49407E-008	3.71481E-008	-1.81000E-001	3.67706E-004	6	..........a	-327.68
	98	9.9	-1.28832E-001	-1.78815E-001	-1.53824E-001	2.22234E-008	-1.47783E-008	3.70017E-008	-1.79000E-001	3.63873E-004	6	..........a	-327.68
	99	10	-1.26868E-001	-1.76851E-001	-1.51859E-001	2.23911E-008	-1.46693E-008	3.70604E-008	-1.77000E-001	3.65873E-004	6	..........a	-327.68
	100	10.1	-1.24793E-001	-1.74856E-001	-1.49824E-001	2.23134E-008	-1.43612E-008	3.66747E-008	-1.75000E-001	3.60039E-004	6	..........a	-327.68
