EXPLAIN
TAG	SQUARE_WAVE
TITLE	LABEL	Square Wave Voltammetry	Test Identifier
DATE	LABEL	8/10/2020	Date
TIME	LABEL	20:07:55	Time
NOTES	NOTES	1	Notes...
	
PSTAT	PSTAT	REF600-24079	Potentiostat
VINIT	QUANT	-3.50000E-001	Initial E (V)
VFINAL	QUANT	-1.50000E-001	Final E (V)
STEPSIZE	QUANT	2.00000E+000	Step Size (mV)
TIMERRES	QUANT	3.33340E-005	&Timer Resolution
FREQUENCY	QUANT	2.00000E+002	Frequency (Hz)
PULSESIZE	QUANT	2.50000E+001	Pulse Size E (mV)
PULSEON	QUANT	5.00000E-003	Pulse &Time (s)
NOISEREJECT	TOGGLE	F	Noise Rejection
AREA	QUANT	2.00000E-002	Sample Area (cm^2)
IMODE	SELECTOR	1	I/E Range Mode
IRANGE	QUANT	1.00000E-002	Max Current (mA)
EQDELAY	IQUANT	10	Equil. Time (s)
IRCOMP	SELECTOR	0	IRComp
PFCOR	QUANT	5.00000E+001	PF Corr. (ohm)
CYCLES	IQUANT	101	C&ycles (#)
ELECTRODETYPE	SELECTOR	0	Electrode Type
STRIPPING	TOGGLE	F	Used for Stripping
POLARITY	TOGGLE	F	Signal Polarity
LINEFREQ	IQUANT	60	Line Frequency (Hz)
INTPERIOD	QUANT	3.3334E-005	Integration Period (s)
SEQUENCER	TOGGLE	TRUE	Run as Sequence
PSTATMODEL	IQUANT	4	Pstat Model
PSTATSECTION	LABEL	REF600-24079	Pstat Section
PSTATSERIALNO	LABEL	24079	Pstat Serial Number
CTRLMODE	IQUANT	1	Control Mode
ELECTROMETER	IQUANT	0	RE=0 or CS=1
IESTAB	IQUANT	2	I/E Stability
CASPEED	IQUANT	6	Control Amp Speed
CONVENTION	IQUANT	1	Current Convention
ICHRANGE	IQUANT	2	Ich Range
ICHRANGEMODE	TOGGLE	F	Ich Auto Range
ICHOFFSETENABLE	TOGGLE	F	Ich Offset Enable
ICHOFFSET	QUANT	0	Ich Offset (V)
ICHFILTER	IQUANT	2	Ich Filter
VCHRANGE	IQUANT	2	Vch Range
VCHRANGEMODE	TOGGLE	F	Vch Auto Range
VCHOFFSETENABLE	TOGGLE	F	Vch Offset Enable
VCHOFFSET	QUANT	0	Vch Offset (V)
VCHFILTER	IQUANT	1	Vch Filter
ACHRANGE	IQUANT	2	Ach Range
ACHOFFSETENABLE	TOGGLE	F	Ach Offset Enable
ACHOFFSET	QUANT	0	Ach Offset (V)
ACHFILTER	IQUANT	1	Ach Filter
IERANGELOWERLIMIT	IQUANT	1	I/E Range Lower Limit
IERANGEMODE	TOGGLE	F	I/E AutoRange
IERANGE	IQUANT	7	I/E Range
POSFEEDENABLE	TOGGLE	F	Positive Feedback IR Comp
POSFEEDRESISTANCE	QUANT	0	Positive Feedback Resistance (ohm)
ACHSELECT	IQUANT	0	Ach Select
SENSECABLEID	IQUANT	13	Sense Cable ID
PWRCABLEID	IQUANT	13	Power Cable ID
DCCALDATE	LABEL	6/30/2020	DC Calibration Date
ACCALDATE	LABEL	6/30/2020	AC Calibration Date
THERMOSELECT	IQUANT	1	Thermo Select
FRAMEWORKVERSION	LABEL	7.8.2	Framework Version
INSTRUMENTVERSION	LABEL	4.40	Instrument Version
CURVE	TABLE	101
	Pt	T	Vfwd	Vrev	Vstep	Ifwd	Irev	Idif	Sig	Ach	IERange	Over	Temp
	#	s	V	V	V	A	A	A	V	V	#	bits	deg C
	0	0.005	-3.24491E-001	-3.80628E-001	-3.52559E-001	-1.43124E-007	-3.58906E-006	3.44594E-006	-3.75000E-001	4.22706E-004	7	..........a	-327.68
	1	0.01	-3.15511E-001	-3.79424E-001	-3.47468E-001	3.30415E-006	-3.83396E-006	7.13811E-006	-3.73000E-001	3.62706E-004	7	..........a	-327.68
	2	0.015	-3.13468E-001	-3.77374E-001	-3.45421E-001	3.36962E-006	-3.80429E-006	7.17391E-006	-3.71000E-001	3.72706E-004	7	..........a	-327.68
	3	0.02	-3.11434E-001	-3.75371E-001	-3.43403E-001	3.37669E-006	-3.78022E-006	7.15691E-006	-3.69000E-001	3.29373E-004	7	..........a	-327.68
	4	0.025	-3.09481E-001	-3.73371E-001	-3.41426E-001	3.38389E-006	-3.76075E-006	7.14464E-006	-3.67000E-001	3.66039E-004	7	..........a	-327.68
	5	0.03	-3.07388E-001	-3.71384E-001	-3.39386E-001	3.38989E-006	-3.74835E-006	7.13824E-006	-3.65000E-001	3.99373E-004	7	..........a	-327.68
	6	0.035	-3.05471E-001	-3.69301E-001	-3.37386E-001	3.38942E-006	-3.73048E-006	7.11990E-006	-3.63000E-001	3.86039E-004	7	..........a	-327.68
	7	0.04	-3.03474E-001	-3.67388E-001	-3.35431E-001	3.39362E-006	-3.71501E-006	7.10864E-006	-3.61000E-001	3.66039E-004	7	..........a	-327.68
	8	0.045	-3.01488E-001	-3.65324E-001	-3.33406E-001	3.39836E-006	-3.70594E-006	7.10430E-006	-3.59000E-001	3.96039E-004	7	..........a	-327.68
	9	0.05	-2.99481E-001	-3.63338E-001	-3.31409E-001	3.40269E-006	-3.69648E-006	7.09917E-006	-3.57000E-001	3.62706E-004	7	..........a	-327.68
	10	0.055	-2.97468E-001	-3.61338E-001	-3.29403E-001	3.39596E-006	-3.68307E-006	7.07903E-006	-3.55000E-001	3.56039E-004	7	..........a	-327.68
	11	0.06	-2.95441E-001	-3.59401E-001	-3.27421E-001	3.40369E-006	-3.66707E-006	7.07076E-006	-3.53000E-001	3.66039E-004	7	..........a	-327.68
	12	0.065	-2.93481E-001	-3.57374E-001	-3.25428E-001	3.40296E-006	-3.66287E-006	7.06583E-006	-3.51000E-001	3.36039E-004	7	..........a	-327.68
	13	0.07	-2.91421E-001	-3.55357E-001	-3.23389E-001	3.39829E-006	-3.64860E-006	7.04689E-006	-3.49000E-001	3.89373E-004	7	..........a	-327.68
	14	0.075	-2.89481E-001	-3.53344E-001	-3.21413E-001	3.40323E-006	-3.63507E-006	7.03829E-006	-3.47000E-001	3.89373E-004	7	..........a	-327.68
	15	0.08	-2.87564E-001	-3.51618E-001	-3.19591E-001	3.40209E-006	-3.62707E-006	7.02916E-006	-3.45000E-001	4.22706E-004	7	..........a	-327.68
	16	0.085	-2.85474E-001	-3.49351E-001	-3.17412E-001	3.40243E-006	-3.61933E-006	7.02176E-006	-3.43000E-001	3.72706E-004	7	..........a	-327.68
	17	0.09	-2.83664E-001	-3.47394E-001	-3.15529E-001	3.40476E-006	-3.60933E-006	7.01409E-006	-3.41000E-001	4.26039E-004	7	..........a	-327.68
	18	0.095	-2.81494E-001	-3.45374E-001	-3.13434E-001	3.40956E-006	-3.60026E-006	7.00982E-006	-3.39000E-001	3.69373E-004	7	..........a	-327.68
	19	0.1	-2.79468E-001	-3.43354E-001	-3.11411E-001	3.40436E-006	-3.59326E-006	6.99762E-006	-3.37000E-001	4.02706E-004	7	..........a	-327.68
	20	0.105	-2.77474E-001	-3.41411E-001	-3.09443E-001	3.40603E-006	-3.58273E-006	6.98875E-006	-3.35000E-001	3.56039E-004	7	..........a	-327.68
	21	0.11	-2.75468E-001	-3.39398E-001	-3.07433E-001	3.41356E-006	-3.57913E-006	6.99269E-006	-3.33000E-001	3.86039E-004	7	..........a	-327.68
	22	0.115	-2.73508E-001	-3.37348E-001	-3.05428E-001	3.41129E-006	-3.56706E-006	6.97835E-006	-3.31000E-001	4.36039E-004	7	..........a	-327.68
	23	0.12	-2.71478E-001	-3.35394E-001	-3.03436E-001	3.41156E-006	-3.56279E-006	6.97435E-006	-3.29000E-001	3.89373E-004	7	..........a	-327.68
	24	0.125	-2.69544E-001	-3.33354E-001	-3.01449E-001	3.41263E-006	-3.55159E-006	6.96422E-006	-3.27000E-001	3.99373E-004	7	..........a	-327.68
	25	0.13	-2.67421E-001	-3.31371E-001	-2.99396E-001	3.41909E-006	-3.54619E-006	6.96528E-006	-3.25000E-001	4.02706E-004	7	..........a	-327.68
	26	0.135	-2.65487E-001	-3.29351E-001	-2.97419E-001	3.41356E-006	-3.53979E-006	6.95335E-006	-3.23000E-001	3.89373E-004	7	..........a	-327.68
	27	0.14	-2.63511E-001	-3.27404E-001	-2.95458E-001	3.41789E-006	-3.53305E-006	6.95095E-006	-3.21000E-001	3.69373E-004	7	..........a	-327.68
	28	0.145	-2.61491E-001	-3.25337E-001	-2.93414E-001	3.41916E-006	-3.52939E-006	6.94855E-006	-3.19000E-001	4.22706E-004	7	..........a	-327.68
	29	0.15	-2.59501E-001	-3.23371E-001	-2.91436E-001	3.42069E-006	-3.51985E-006	6.94055E-006	-3.17000E-001	3.89373E-004	7	..........a	-327.68
	30	0.155	-2.57541E-001	-3.21354E-001	-2.89448E-001	3.41909E-006	-3.51892E-006	6.93801E-006	-3.15000E-001	4.12706E-004	7	..........a	-327.68
	31	0.16	-2.55488E-001	-3.19364E-001	-2.87426E-001	3.42776E-006	-3.50538E-006	6.93314E-006	-3.13000E-001	4.36039E-004	7	..........a	-327.68
	32	0.165	-2.53531E-001	-3.17361E-001	-2.85446E-001	3.42710E-006	-3.50512E-006	6.93221E-006	-3.11000E-001	3.96039E-004	7	..........a	-327.68
	33	0.17	-2.51514E-001	-3.15381E-001	-2.83448E-001	3.42416E-006	-3.49912E-006	6.92328E-006	-3.09000E-001	4.02706E-004	7	..........a	-327.68
	34	0.175	-2.49521E-001	-3.13338E-001	-2.81429E-001	3.43270E-006	-3.49091E-006	6.92361E-006	-3.07000E-001	3.56039E-004	7	..........a	-327.68
	35	0.18	-2.47498E-001	-3.11414E-001	-2.79456E-001	3.42970E-006	-3.48705E-006	6.91674E-006	-3.05000E-001	3.79373E-004	7	..........a	-327.68
	36	0.185	-2.45531E-001	-3.09361E-001	-2.77446E-001	3.43290E-006	-3.48225E-006	6.91514E-006	-3.03000E-001	3.79373E-004	7	..........a	-327.68
	37	0.19	-2.43531E-001	-3.07368E-001	-2.75449E-001	3.43250E-006	-3.47731E-006	6.90981E-006	-3.01000E-001	3.89373E-004	7	..........a	-327.68
	38	0.195	-2.41471E-001	-3.05308E-001	-2.73389E-001	3.43963E-006	-3.47344E-006	6.91308E-006	-2.99000E-001	3.96039E-004	7	..........a	-327.68
	39	0.2	-2.39514E-001	-3.03344E-001	-2.71429E-001	3.43636E-006	-3.47038E-006	6.90674E-006	-2.97000E-001	3.79373E-004	7	..........a	-327.68
	40	0.205	-2.37474E-001	-3.01421E-001	-2.69448E-001	3.44210E-006	-3.46218E-006	6.90427E-006	-2.95000E-001	3.46039E-004	7	..........a	-327.68
	41	0.21	-2.35461E-001	-2.99354E-001	-2.67408E-001	3.44770E-006	-3.46204E-006	6.90974E-006	-2.93000E-001	4.36039E-004	7	..........a	-327.68
	42	0.215	-2.33571E-001	-2.97354E-001	-2.65463E-001	3.44710E-006	-3.45584E-006	6.90294E-006	-2.91000E-001	3.92706E-004	7	..........a	-327.68
	43	0.22	-2.31504E-001	-2.95364E-001	-2.63434E-001	3.44677E-006	-3.45498E-006	6.90174E-006	-2.89000E-001	3.99373E-004	7	..........a	-327.68
	44	0.225	-2.29534E-001	-2.93314E-001	-2.61424E-001	3.44963E-006	-3.44564E-006	6.89527E-006	-2.87000E-001	3.49373E-004	7	..........a	-327.68
	45	0.23	-2.27494E-001	-2.91341E-001	-2.59418E-001	3.45483E-006	-3.44544E-006	6.90027E-006	-2.85000E-001	3.99373E-004	7	..........a	-327.68
	46	0.235	-2.25504E-001	-2.89328E-001	-2.57416E-001	3.44883E-006	-3.44204E-006	6.89087E-006	-2.83000E-001	3.92706E-004	7	..........a	-327.68
	47	0.24	-2.23564E-001	-2.87374E-001	-2.55469E-001	3.45590E-006	-3.43517E-006	6.89107E-006	-2.81000E-001	3.92706E-004	7	..........a	-327.68
	48	0.245	-2.21521E-001	-2.85301E-001	-2.53411E-001	3.45877E-006	-3.43417E-006	6.89294E-006	-2.79000E-001	3.89373E-004	7	..........a	-327.68
	49	0.25	-2.19504E-001	-2.83338E-001	-2.51421E-001	3.45757E-006	-3.42690E-006	6.88447E-006	-2.77000E-001	3.86039E-004	7	..........a	-327.68
	50	0.255	-2.17544E-001	-2.81287E-001	-2.49416E-001	3.46197E-006	-3.42444E-006	6.88641E-006	-2.75000E-001	3.86039E-004	7	..........a	-327.68
	51	0.26	-2.15488E-001	-2.79391E-001	-2.47439E-001	3.46483E-006	-3.42224E-006	6.88707E-006	-2.73000E-001	3.89373E-004	7	..........a	-327.68
	52	0.265	-2.13558E-001	-2.77331E-001	-2.45444E-001	3.46777E-006	-3.42117E-006	6.88894E-006	-2.71000E-001	3.39373E-004	7	..........a	-327.68
	53	0.27	-2.11474E-001	-2.75348E-001	-2.43411E-001	3.46723E-006	-3.42017E-006	6.88741E-006	-2.69000E-001	3.82706E-004	7	..........a	-327.68
	54	0.275	-2.09528E-001	-2.73308E-001	-2.41418E-001	3.46943E-006	-3.41230E-006	6.88174E-006	-2.67000E-001	3.59373E-004	7	..........a	-327.68
	55	0.28	-2.07514E-001	-2.71351E-001	-2.39433E-001	3.46857E-006	-3.41124E-006	6.87980E-006	-2.65000E-001	3.82706E-004	7	..........a	-327.68
	56	0.285	-2.05548E-001	-2.69338E-001	-2.37443E-001	3.47110E-006	-3.40884E-006	6.87994E-006	-2.63000E-001	3.89373E-004	7	..........a	-327.68
	57	0.29	-2.03501E-001	-2.67348E-001	-2.35424E-001	3.47124E-006	-3.40150E-006	6.87274E-006	-2.61000E-001	3.99373E-004	7	..........a	-327.68
	58	0.295	-2.01574E-001	-2.65271E-001	-2.33423E-001	3.47457E-006	-3.40130E-006	6.87587E-006	-2.59000E-001	3.99373E-004	7	..........a	-327.68
	59	0.3	-1.99584E-001	-2.63278E-001	-2.31431E-001	3.47157E-006	-3.39590E-006	6.86747E-006	-2.57000E-001	3.49373E-004	7	..........a	-327.68
	60	0.305	-1.97524E-001	-2.61368E-001	-2.29446E-001	3.47257E-006	-3.39230E-006	6.86487E-006	-2.55000E-001	3.62706E-004	7	..........a	-327.68
	61	0.31	-1.95574E-001	-2.59311E-001	-2.27443E-001	3.47510E-006	-3.39097E-006	6.86607E-006	-2.53000E-001	3.86039E-004	7	..........a	-327.68
	62	0.315	-1.93558E-001	-2.57278E-001	-2.25418E-001	3.47477E-006	-3.38783E-006	6.86260E-006	-2.51000E-001	3.99373E-004	7	..........a	-327.68
	63	0.32	-1.91551E-001	-2.55344E-001	-2.23448E-001	3.47624E-006	-3.38470E-006	6.86094E-006	-2.49000E-001	3.56039E-004	7	..........a	-327.68
	64	0.325	-1.89574E-001	-2.53324E-001	-2.21449E-001	3.48177E-006	-3.38030E-006	6.86207E-006	-2.47000E-001	4.12706E-004	7	..........a	-327.68
	65	0.33	-1.87538E-001	-2.51334E-001	-2.19436E-001	3.47924E-006	-3.37983E-006	6.85907E-006	-2.45000E-001	3.76039E-004	7	..........a	-327.68
	66	0.335	-1.85524E-001	-2.49304E-001	-2.17414E-001	3.47850E-006	-3.37556E-006	6.85407E-006	-2.43000E-001	4.26039E-004	7	..........a	-327.68
	67	0.34	-1.83558E-001	-2.47361E-001	-2.15459E-001	3.47717E-006	-3.36976E-006	6.84693E-006	-2.41000E-001	3.86039E-004	7	..........a	-327.68
	68	0.345	-1.81488E-001	-2.45341E-001	-2.13414E-001	3.48250E-006	-3.36710E-006	6.84960E-006	-2.39000E-001	3.96039E-004	7	..........a	-327.68
	69	0.35	-1.79518E-001	-2.43311E-001	-2.11414E-001	3.47690E-006	-3.36730E-006	6.84420E-006	-2.37000E-001	3.99373E-004	7	..........a	-327.68
	70	0.355	-1.77534E-001	-2.41248E-001	-2.09391E-001	3.48224E-006	-3.36303E-006	6.84527E-006	-2.35000E-001	3.52706E-004	7	..........a	-327.68
	71	0.36	-1.75528E-001	-2.39328E-001	-2.07428E-001	3.48250E-006	-3.36136E-006	6.84387E-006	-2.33000E-001	4.09373E-004	7	..........a	-327.68
	72	0.365	-1.73581E-001	-2.37344E-001	-2.05463E-001	3.48277E-006	-3.35716E-006	6.83993E-006	-2.31000E-001	3.92706E-004	7	..........a	-327.68
	73	0.37	-1.71508E-001	-2.35344E-001	-2.03426E-001	3.48637E-006	-3.35870E-006	6.84507E-006	-2.29000E-001	3.76039E-004	7	..........a	-327.68
	74	0.375	-1.69574E-001	-2.33284E-001	-2.01429E-001	3.48650E-006	-3.35043E-006	6.83693E-006	-2.27000E-001	3.82706E-004	7	..........a	-327.68
	75	0.38	-1.67534E-001	-2.31358E-001	-1.99446E-001	3.48744E-006	-3.35116E-006	6.83860E-006	-2.25000E-001	4.02706E-004	7	..........a	-327.68
	76	0.385	-1.65484E-001	-2.29271E-001	-1.97378E-001	3.48417E-006	-3.34929E-006	6.83346E-006	-2.23000E-001	3.99373E-004	7	..........a	-327.68
	77	0.39	-1.63511E-001	-2.27321E-001	-1.95416E-001	3.49190E-006	-3.34376E-006	6.83567E-006	-2.21000E-001	4.02706E-004	7	..........a	-327.68
	78	0.395	-1.61544E-001	-2.25268E-001	-1.93406E-001	3.48897E-006	-3.34516E-006	6.83413E-006	-2.19000E-001	3.92706E-004	7	..........a	-327.68
	79	0.4	-1.59568E-001	-2.23321E-001	-1.91444E-001	3.49217E-006	-3.34176E-006	6.83393E-006	-2.17000E-001	3.39373E-004	7	..........a	-327.68
	80	0.405	-1.57598E-001	-2.21324E-001	-1.89461E-001	3.49064E-006	-3.34023E-006	6.83086E-006	-2.15000E-001	3.82706E-004	7	..........a	-327.68
	81	0.41	-1.55514E-001	-2.19311E-001	-1.87413E-001	3.49691E-006	-3.33989E-006	6.83680E-006	-2.13000E-001	3.82706E-004	7	..........a	-327.68
	82	0.415	-1.53534E-001	-2.17298E-001	-1.85416E-001	3.49771E-006	-3.34196E-006	6.83967E-006	-2.11000E-001	3.69373E-004	7	..........a	-327.68
	83	0.42	-1.51534E-001	-2.15331E-001	-1.83433E-001	3.50364E-006	-3.33603E-006	6.83966E-006	-2.09000E-001	3.56039E-004	7	..........a	-327.68
	84	0.425	-1.49574E-001	-2.13294E-001	-1.81434E-001	3.50551E-006	-3.33949E-006	6.84500E-006	-2.07000E-001	3.76039E-004	7	..........a	-327.68
	85	0.43	-1.47508E-001	-2.11318E-001	-1.79413E-001	3.50571E-006	-3.33483E-006	6.84053E-006	-2.05000E-001	3.89373E-004	7	..........a	-327.68
	86	0.435	-1.45581E-001	-2.09264E-001	-1.77423E-001	3.50471E-006	-3.34023E-006	6.84493E-006	-2.03000E-001	4.12706E-004	7	..........a	-327.68
	87	0.44	-1.43554E-001	-2.07354E-001	-1.75454E-001	3.50591E-006	-3.33316E-006	6.83907E-006	-2.01000E-001	3.79373E-004	7	..........a	-327.68
	88	0.445	-1.41538E-001	-2.05311E-001	-1.73424E-001	3.51204E-006	-3.33503E-006	6.84707E-006	-1.99000E-001	3.76039E-004	7	..........a	-327.68
	89	0.45	-1.39524E-001	-2.03281E-001	-1.71403E-001	3.50997E-006	-3.33516E-006	6.84513E-006	-1.97000E-001	3.72706E-004	7	..........a	-327.68
	90	0.455	-1.37531E-001	-2.01321E-001	-1.69426E-001	3.51737E-006	-3.33436E-006	6.85173E-006	-1.95000E-001	3.69373E-004	7	..........a	-327.68
	91	0.46	-1.35574E-001	-1.99341E-001	-1.67458E-001	3.51951E-006	-3.33569E-006	6.85520E-006	-1.93000E-001	3.89373E-004	7	..........a	-327.68
	92	0.465	-1.33548E-001	-1.97304E-001	-1.65426E-001	3.52084E-006	-3.33416E-006	6.85500E-006	-1.91000E-001	3.99373E-004	7	..........a	-327.68
	93	0.47	-1.31468E-001	-1.95341E-001	-1.63404E-001	3.52471E-006	-3.33756E-006	6.86227E-006	-1.89000E-001	3.56039E-004	7	..........a	-327.68
	94	0.475	-1.29521E-001	-1.93308E-001	-1.61414E-001	3.52744E-006	-3.33463E-006	6.86207E-006	-1.87000E-001	3.76039E-004	7	..........a	-327.68
	95	0.48	-1.27561E-001	-1.91424E-001	-1.59493E-001	3.53564E-006	-3.33783E-006	6.87347E-006	-1.85000E-001	3.66039E-004	7	..........a	-327.68
	96	0.485	-1.25564E-001	-1.89318E-001	-1.57441E-001	3.53391E-006	-3.33923E-006	6.87314E-006	-1.83000E-001	3.76039E-004	7	..........a	-327.68
	97	0.49	-1.23581E-001	-1.87328E-001	-1.55454E-001	3.54178E-006	-3.33796E-006	6.87974E-006	-1.81000E-001	4.29373E-004	7	..........a	-327.68
	98	0.495	-1.21551E-001	-1.85291E-001	-1.53421E-001	3.54264E-006	-3.34049E-006	6.88314E-006	-1.79000E-001	3.79373E-004	7	..........a	-327.68
	99	0.5	-1.19598E-001	-1.83254E-001	-1.51426E-001	3.54778E-006	-3.34283E-006	6.89061E-006	-1.77000E-001	3.66039E-004	7	..........a	-327.68
	100	0.505	-1.17541E-001	-1.81318E-001	-1.49429E-001	3.54971E-006	-3.34343E-006	6.89314E-006	-1.75000E-001	4.12706E-004	7	..........a	-327.68
