EXPLAIN
TAG	SQUARE_WAVE
TITLE	LABEL	Square Wave Voltammetry	Test Identifier
DATE	LABEL	8/10/2020	Date
TIME	LABEL	14:41:09	Time
NOTES	NOTES	1	Notes...
	
PSTAT	PSTAT	REF600-24079	Potentiostat
VINIT	QUANT	-3.50000E-001	Initial E (V)
VFINAL	QUANT	-1.50000E-001	Final E (V)
STEPSIZE	QUANT	2.00000E+000	Step Size (mV)
TIMERRES	QUANT	3.33340E-005	&Timer Resolution
FREQUENCY	QUANT	2.50000E+001	Frequency (Hz)
PULSESIZE	QUANT	2.50000E+001	Pulse Size E (mV)
PULSEON	QUANT	4.00000E-002	Pulse &Time (s)
NOISEREJECT	TOGGLE	F	Noise Rejection
AREA	QUANT	2.00000E-002	Sample Area (cm^2)
IMODE	SELECTOR	1	I/E Range Mode
IRANGE	QUANT	1.00000E-003	Max Current (mA)
EQDELAY	IQUANT	10	Equil. Time (s)
IRCOMP	SELECTOR	0	IRComp
PFCOR	QUANT	5.00000E+001	PF Corr. (ohm)
CYCLES	IQUANT	101	C&ycles (#)
ELECTRODETYPE	SELECTOR	0	Electrode Type
STRIPPING	TOGGLE	F	Used for Stripping
POLARITY	TOGGLE	F	Signal Polarity
LINEFREQ	IQUANT	60	Line Frequency (Hz)
INTPERIOD	QUANT	3.3334E-005	Integration Period (s)
SEQUENCER	TOGGLE	TRUE	Run as Sequence
PSTATMODEL	IQUANT	4	Pstat Model
PSTATSECTION	LABEL	REF600-24079	Pstat Section
PSTATSERIALNO	LABEL	24079	Pstat Serial Number
CTRLMODE	IQUANT	1	Control Mode
ELECTROMETER	IQUANT	0	RE=0 or CS=1
IESTAB	IQUANT	2	I/E Stability
CASPEED	IQUANT	6	Control Amp Speed
CONVENTION	IQUANT	1	Current Convention
ICHRANGE	IQUANT	2	Ich Range
ICHRANGEMODE	TOGGLE	F	Ich Auto Range
ICHOFFSETENABLE	TOGGLE	F	Ich Offset Enable
ICHOFFSET	QUANT	0	Ich Offset (V)
ICHFILTER	IQUANT	2	Ich Filter
VCHRANGE	IQUANT	2	Vch Range
VCHRANGEMODE	TOGGLE	F	Vch Auto Range
VCHOFFSETENABLE	TOGGLE	F	Vch Offset Enable
VCHOFFSET	QUANT	0	Vch Offset (V)
VCHFILTER	IQUANT	2	Vch Filter
ACHRANGE	IQUANT	2	Ach Range
ACHOFFSETENABLE	TOGGLE	F	Ach Offset Enable
ACHOFFSET	QUANT	0	Ach Offset (V)
ACHFILTER	IQUANT	1	Ach Filter
IERANGELOWERLIMIT	IQUANT	1	I/E Range Lower Limit
IERANGEMODE	TOGGLE	F	I/E AutoRange
IERANGE	IQUANT	6	I/E Range
POSFEEDENABLE	TOGGLE	F	Positive Feedback IR Comp
POSFEEDRESISTANCE	QUANT	0	Positive Feedback Resistance (ohm)
ACHSELECT	IQUANT	0	Ach Select
SENSECABLEID	IQUANT	13	Sense Cable ID
PWRCABLEID	IQUANT	13	Power Cable ID
DCCALDATE	LABEL	6/30/2020	DC Calibration Date
ACCALDATE	LABEL	6/30/2020	AC Calibration Date
THERMOSELECT	IQUANT	1	Thermo Select
FRAMEWORKVERSION	LABEL	7.8.2	Framework Version
INSTRUMENTVERSION	LABEL	4.40	Instrument Version
CURVE	TABLE	101
	Pt	T	Vfwd	Vrev	Vstep	Ifwd	Irev	Idif	Sig	Ach	IERange	Over	Temp
	#	s	V	V	V	A	A	A	V	V	#	bits	deg C
	0	0.04	-3.25060E-001	-3.75571E-001	-3.50315E-001	-2.66295E-008	-1.38768E-007	1.12138E-007	-3.75000E-001	4.14789E-004	6	..........a	-327.68
	1	0.08	-3.22346E-001	-3.73599E-001	-3.47972E-001	3.86905E-008	-1.28407E-007	1.67097E-007	-3.73000E-001	4.13123E-004	6	..........a	-327.68
	2	0.12	-3.20366E-001	-3.71573E-001	-3.45969E-001	4.30211E-008	-1.23196E-007	1.66217E-007	-3.71000E-001	4.07289E-004	6	..........a	-327.68
	3	0.16	-3.18280E-001	-3.69545E-001	-3.43912E-001	4.73716E-008	-1.20543E-007	1.67915E-007	-3.69000E-001	4.19789E-004	6	..........a	-327.68
	4	0.2	-3.16377E-001	-3.67574E-001	-3.41976E-001	4.74791E-008	-1.19332E-007	1.66811E-007	-3.67000E-001	4.10623E-004	6	..........a	-327.68
	5	0.24	-3.14325E-001	-3.65557E-001	-3.39941E-001	4.95277E-008	-1.15982E-007	1.65509E-007	-3.65000E-001	4.06873E-004	6	..........a	-327.68
	6	0.28	-3.12361E-001	-3.63544E-001	-3.37953E-001	5.08087E-008	-1.15362E-007	1.66170E-007	-3.63000E-001	4.13123E-004	6	..........a	-327.68
	7	0.32	-3.10304E-001	-3.61581E-001	-3.35942E-001	5.09021E-008	-1.13489E-007	1.64391E-007	-3.61000E-001	4.08123E-004	6	..........a	-327.68
	8	0.36	-3.08368E-001	-3.59561E-001	-3.33964E-001	5.34566E-008	-1.12474E-007	1.65930E-007	-3.59000E-001	4.15206E-004	6	..........a	-327.68
	9	0.4	-3.06384E-001	-3.57624E-001	-3.32004E-001	5.30923E-008	-1.12016E-007	1.65109E-007	-3.57000E-001	4.03123E-004	6	..........a	-327.68
	10	0.44	-3.04403E-001	-3.55561E-001	-3.29982E-001	5.48184E-008	-1.08683E-007	1.63502E-007	-3.55000E-001	4.07706E-004	6	..........a	-327.68
	11	0.48	-3.02343E-001	-3.53591E-001	-3.27967E-001	5.55960E-008	-1.08628E-007	1.64224E-007	-3.53000E-001	4.01039E-004	6	..........a	-327.68
	12	0.52	-3.00382E-001	-3.51586E-001	-3.25984E-001	5.57135E-008	-1.07811E-007	1.63525E-007	-3.51000E-001	4.08123E-004	6	..........a	-327.68
	13	0.56	-2.98361E-001	-3.49580E-001	-3.23970E-001	5.76187E-008	-1.06609E-007	1.64228E-007	-3.49000E-001	3.98539E-004	6	..........a	-327.68
	14	0.6	-2.96383E-001	-3.47563E-001	-3.21973E-001	5.78496E-008	-1.06436E-007	1.64286E-007	-3.47000E-001	4.08539E-004	6	..........a	-327.68
	15	0.64	-2.94333E-001	-3.45573E-001	-3.19953E-001	5.90714E-008	-1.04229E-007	1.63300E-007	-3.45000E-001	4.08956E-004	6	..........a	-327.68
	16	0.68	-2.92382E-001	-3.43558E-001	-3.17970E-001	5.97715E-008	-1.04158E-007	1.63930E-007	-3.43000E-001	4.13956E-004	6	..........a	-327.68
	17	0.72	-2.90360E-001	-3.41635E-001	-3.15998E-001	6.00607E-008	-1.03030E-007	1.63091E-007	-3.41000E-001	4.15206E-004	6	..........a	-327.68
	18	0.76	-2.88371E-001	-3.39539E-001	-3.13955E-001	6.24477E-008	-1.02062E-007	1.64510E-007	-3.39000E-001	4.17289E-004	6	..........a	-327.68
	19	0.8	-2.86320E-001	-3.37561E-001	-3.11940E-001	6.23560E-008	-1.02562E-007	1.64918E-007	-3.37000E-001	4.06873E-004	6	..........a	-327.68
	20	0.84	-2.84378E-001	-3.35551E-001	-3.09964E-001	6.32870E-008	-1.00063E-007	1.63350E-007	-3.35000E-001	4.07706E-004	6	..........a	-327.68
	21	0.88	-2.82365E-001	-3.33615E-001	-3.07990E-001	6.46505E-008	-1.00640E-007	1.65290E-007	-3.33000E-001	4.08956E-004	6	..........a	-327.68
	22	0.92	-2.80406E-001	-3.31571E-001	-3.05988E-001	6.42813E-008	-9.96121E-008	1.63893E-007	-3.31000E-001	4.14789E-004	6	..........a	-327.68
	23	0.96	-2.78350E-001	-3.29605E-001	-3.03977E-001	6.73983E-008	-9.93646E-008	1.66763E-007	-3.29000E-001	4.18123E-004	6	..........a	-327.68
	24	1	-2.76388E-001	-3.27569E-001	-3.01979E-001	6.72641E-008	-9.96963E-008	1.66960E-007	-3.27000E-001	4.06039E-004	6	..........a	-327.68
	25	1.04	-2.74376E-001	-3.25597E-001	-2.99986E-001	6.83868E-008	-9.76577E-008	1.66044E-007	-3.25000E-001	3.98123E-004	6	..........a	-327.68
	26	1.08	-2.72403E-001	-3.23576E-001	-2.97990E-001	6.93619E-008	-9.84561E-008	1.67818E-007	-3.23000E-001	4.12289E-004	6	..........a	-327.68
	27	1.12	-2.70370E-001	-3.21573E-001	-2.95971E-001	6.97336E-008	-9.80244E-008	1.67758E-007	-3.21000E-001	4.07706E-004	6	..........a	-327.68
	28	1.16	-2.68386E-001	-3.19563E-001	-2.93975E-001	7.23164E-008	-9.68717E-008	1.69188E-007	-3.19000E-001	4.12289E-004	6	..........a	-327.68
	29	1.2	-2.66381E-001	-3.17646E-001	-2.92013E-001	7.26948E-008	-9.79869E-008	1.70682E-007	-3.17000E-001	4.06873E-004	6	..........a	-327.68
	30	1.24	-2.64385E-001	-3.15538E-001	-2.89962E-001	7.41183E-008	-9.59933E-008	1.70112E-007	-3.15000E-001	4.13956E-004	6	..........a	-327.68
	31	1.28	-2.62353E-001	-3.13566E-001	-2.87960E-001	7.50418E-008	-9.69868E-008	1.72029E-007	-3.13000E-001	4.15206E-004	6	..........a	-327.68
	32	1.32	-2.60383E-001	-3.11550E-001	-2.85966E-001	7.51368E-008	-9.64325E-008	1.71569E-007	-3.11000E-001	4.05206E-004	6	..........a	-327.68
	33	1.36	-2.58383E-001	-3.09611E-001	-2.83997E-001	7.70487E-008	-9.59850E-008	1.73034E-007	-3.09000E-001	4.26456E-004	6	..........a	-327.68
	34	1.4	-2.56398E-001	-3.07542E-001	-2.81970E-001	7.74396E-008	-9.72226E-008	1.74662E-007	-3.07000E-001	4.03956E-004	6	..........a	-327.68
	35	1.44	-2.54356E-001	-3.05604E-001	-2.79980E-001	7.86039E-008	-9.56258E-008	1.74230E-007	-3.05000E-001	3.98123E-004	6	..........a	-327.68
	36	1.48	-2.52394E-001	-3.03574E-001	-2.77984E-001	7.96157E-008	-9.65217E-008	1.76137E-007	-3.03000E-001	3.91039E-004	6	..........a	-327.68
	37	1.52	-2.50386E-001	-3.01608E-001	-2.75997E-001	7.94115E-008	-9.60391E-008	1.75451E-007	-3.01000E-001	4.02289E-004	6	..........a	-327.68
	38	1.56	-2.48410E-001	-2.99567E-001	-2.73988E-001	8.17060E-008	-9.58099E-008	1.77516E-007	-2.99000E-001	4.13539E-004	6	..........a	-327.68
	39	1.6	-2.46361E-001	-2.97580E-001	-2.71971E-001	8.11234E-008	-9.64300E-008	1.77553E-007	-2.97000E-001	3.97289E-004	6	..........a	-327.68
	40	1.64	-2.44403E-001	-2.95580E-001	-2.69991E-001	8.20335E-008	-9.47031E-008	1.76737E-007	-2.95000E-001	4.01039E-004	6	..........a	-327.68
	41	1.68	-2.42413E-001	-2.93648E-001	-2.68030E-001	8.26586E-008	-9.60208E-008	1.78679E-007	-2.93000E-001	4.13539E-004	6	..........a	-327.68
	42	1.72	-2.40390E-001	-2.91541E-001	-2.65966E-001	8.21652E-008	-9.51774E-008	1.77343E-007	-2.91000E-001	4.09373E-004	6	..........a	-327.68
	43	1.76	-2.38339E-001	-2.89587E-001	-2.63963E-001	8.37179E-008	-9.48882E-008	1.78606E-007	-2.89000E-001	4.24373E-004	6	..........a	-327.68
	44	1.8	-2.36389E-001	-2.87543E-001	-2.61966E-001	8.32512E-008	-9.54899E-008	1.78741E-007	-2.87000E-001	4.14789E-004	6	..........a	-327.68
	45	1.84	-2.34378E-001	-2.85603E-001	-2.59990E-001	8.34879E-008	-9.34138E-008	1.76902E-007	-2.85000E-001	4.18956E-004	6	..........a	-327.68
	46	1.88	-2.32395E-001	-2.83558E-001	-2.57976E-001	8.35645E-008	-9.44556E-008	1.78020E-007	-2.83000E-001	4.09789E-004	6	..........a	-327.68
	47	1.92	-2.30340E-001	-2.81568E-001	-2.55954E-001	8.29845E-008	-9.38205E-008	1.76805E-007	-2.81000E-001	4.10206E-004	6	..........a	-327.68
	48	1.96	-2.28391E-001	-2.79568E-001	-2.53980E-001	8.40479E-008	-9.31988E-008	1.77247E-007	-2.79000E-001	4.32289E-004	6	..........a	-327.68
	49	2	-2.26393E-001	-2.77603E-001	-2.51998E-001	8.25978E-008	-9.32779E-008	1.75876E-007	-2.77000E-001	4.08956E-004	6	..........a	-327.68
	50	2.04	-2.24409E-001	-2.75574E-001	-2.49992E-001	8.26194E-008	-9.16661E-008	1.74286E-007	-2.75000E-001	4.07706E-004	6	..........a	-327.68
	51	2.08	-2.22378E-001	-2.73568E-001	-2.47973E-001	8.27811E-008	-9.22703E-008	1.75051E-007	-2.73000E-001	4.04373E-004	6	..........a	-327.68
	52	2.12	-2.20379E-001	-2.71576E-001	-2.45978E-001	8.17418E-008	-9.13944E-008	1.73136E-007	-2.71000E-001	4.03539E-004	6	..........a	-327.68
	53	2.16	-2.18371E-001	-2.69567E-001	-2.43969E-001	8.24502E-008	-9.05451E-008	1.72995E-007	-2.69000E-001	4.15206E-004	6	..........a	-327.68
	54	2.2	-2.16374E-001	-2.67493E-001	-2.41933E-001	8.10751E-008	-9.06643E-008	1.71739E-007	-2.67000E-001	4.11873E-004	6	..........a	-327.68
	55	2.24	-2.14335E-001	-2.65539E-001	-2.39937E-001	8.07075E-008	-8.85257E-008	1.69233E-007	-2.65000E-001	4.16456E-004	6	..........a	-327.68
	56	2.28	-2.12388E-001	-2.63551E-001	-2.37970E-001	8.08384E-008	-8.87099E-008	1.69548E-007	-2.63000E-001	4.11456E-004	6	..........a	-327.68
	57	2.32	-2.10368E-001	-2.61576E-001	-2.35972E-001	7.96324E-008	-8.80423E-008	1.67675E-007	-2.61000E-001	4.08539E-004	6	..........a	-327.68
	58	2.36	-2.08396E-001	-2.59526E-001	-2.33961E-001	8.01149E-008	-8.66854E-008	1.66800E-007	-2.59000E-001	4.21039E-004	6	..........a	-327.68
	59	2.4	-2.06342E-001	-2.57551E-001	-2.31946E-001	7.87806E-008	-8.68313E-008	1.65612E-007	-2.57000E-001	4.01039E-004	6	..........a	-327.68
	60	2.44	-2.04403E-001	-2.55558E-001	-2.29981E-001	7.84956E-008	-8.44968E-008	1.62992E-007	-2.55000E-001	4.12706E-004	6	..........a	-327.68
	61	2.48	-2.02396E-001	-2.53585E-001	-2.27990E-001	7.89323E-008	-8.50644E-008	1.63997E-007	-2.53000E-001	4.16039E-004	6	..........a	-327.68
	62	2.52	-2.00408E-001	-2.51561E-001	-2.25985E-001	7.67287E-008	-8.35884E-008	1.60317E-007	-2.51000E-001	4.07289E-004	6	..........a	-327.68
	63	2.56	-1.98374E-001	-2.49569E-001	-2.23971E-001	7.79997E-008	-8.24274E-008	1.60427E-007	-2.49000E-001	4.16456E-004	6	..........a	-327.68
	64	2.6	-1.96400E-001	-2.47562E-001	-2.21981E-001	7.72521E-008	-8.25666E-008	1.59819E-007	-2.47000E-001	4.20623E-004	6	..........a	-327.68
	65	2.64	-1.94393E-001	-2.45578E-001	-2.19986E-001	7.66603E-008	-7.98654E-008	1.56526E-007	-2.45000E-001	4.11039E-004	6	..........a	-327.68
	66	2.68	-1.92396E-001	-2.43543E-001	-2.17969E-001	7.64178E-008	-8.05080E-008	1.56926E-007	-2.43000E-001	3.98956E-004	6	..........a	-327.68
	67	2.72	-1.90282E-001	-2.41532E-001	-2.15907E-001	7.53877E-008	-7.90053E-008	1.54393E-007	-2.41000E-001	4.23956E-004	6	..........a	-327.68
	68	2.76	-1.88403E-001	-2.39546E-001	-2.13974E-001	7.67345E-008	-7.81194E-008	1.54854E-007	-2.39000E-001	4.18539E-004	6	..........a	-327.68
	69	2.8	-1.86384E-001	-2.37554E-001	-2.11969E-001	7.55710E-008	-7.79843E-008	1.53555E-007	-2.37000E-001	4.17289E-004	6	..........a	-327.68
	70	2.84	-1.84397E-001	-2.35525E-001	-2.09961E-001	7.51351E-008	-7.61916E-008	1.51327E-007	-2.35000E-001	4.23956E-004	6	..........a	-327.68
	71	2.88	-1.82338E-001	-2.33554E-001	-2.07946E-001	7.54035E-008	-7.62400E-008	1.51643E-007	-2.33000E-001	4.18539E-004	6	..........a	-327.68
	72	2.92	-1.80394E-001	-2.31546E-001	-2.05970E-001	7.41675E-008	-7.45897E-008	1.48757E-007	-2.31000E-001	4.04789E-004	6	..........a	-327.68
	73	2.96	-1.78407E-001	-2.29605E-001	-2.04006E-001	7.51976E-008	-7.40638E-008	1.49261E-007	-2.29000E-001	4.17289E-004	6	..........a	-327.68
	74	3	-1.76414E-001	-2.27555E-001	-2.01985E-001	7.38025E-008	-7.43789E-008	1.48181E-007	-2.27000E-001	4.08539E-004	6	..........a	-327.68
	75	3.04	-1.74358E-001	-2.25572E-001	-1.99965E-001	7.38216E-008	-7.18327E-008	1.45654E-007	-2.25000E-001	4.14373E-004	6	..........a	-327.68
	76	3.08	-1.72399E-001	-2.23566E-001	-1.97983E-001	7.43742E-008	-7.18186E-008	1.46193E-007	-2.23000E-001	4.14789E-004	6	..........a	-327.68
	77	3.12	-1.70384E-001	-2.21574E-001	-1.95979E-001	7.35366E-008	-7.15160E-008	1.45053E-007	-2.21000E-001	4.02706E-004	6	..........a	-327.68
	78	3.16	-1.68400E-001	-2.19547E-001	-1.93973E-001	7.51135E-008	-7.05651E-008	1.45679E-007	-2.19000E-001	4.15206E-004	6	..........a	-327.68
	79	3.2	-1.66358E-001	-2.17533E-001	-1.91946E-001	7.40992E-008	-7.06067E-008	1.44706E-007	-2.17000E-001	4.19373E-004	6	..........a	-327.68
	80	3.24	-1.64393E-001	-2.15551E-001	-1.89972E-001	7.37316E-008	-6.90924E-008	1.42824E-007	-2.15000E-001	4.22706E-004	6	..........a	-327.68
	81	3.28	-1.62365E-001	-2.13619E-001	-1.87992E-001	7.40958E-008	-6.87090E-008	1.42805E-007	-2.13000E-001	4.18123E-004	6	..........a	-327.68
	82	3.32	-1.60396E-001	-2.11543E-001	-1.85970E-001	7.38833E-008	-6.79839E-008	1.41867E-007	-2.11000E-001	4.05206E-004	6	..........a	-327.68
	83	3.36	-1.58333E-001	-2.09553E-001	-1.83943E-001	7.46192E-008	-6.72155E-008	1.41835E-007	-2.09000E-001	4.26456E-004	6	..........a	-327.68
	84	3.4	-1.56393E-001	-2.07542E-001	-1.81967E-001	7.37158E-008	-6.73822E-008	1.41098E-007	-2.07000E-001	4.15623E-004	6	..........a	-327.68
	85	3.44	-1.54362E-001	-2.05567E-001	-1.79965E-001	7.44459E-008	-6.57803E-008	1.40226E-007	-2.05000E-001	4.13956E-004	6	..........a	-327.68
	86	3.48	-1.52407E-001	-2.03554E-001	-1.77981E-001	7.43175E-008	-6.62037E-008	1.40521E-007	-2.03000E-001	4.23956E-004	6	..........a	-327.68
	87	3.52	-1.50336E-001	-2.01591E-001	-1.75963E-001	7.39883E-008	-6.55778E-008	1.39566E-007	-2.01000E-001	4.11873E-004	6	..........a	-327.68
	88	3.56	-1.48395E-001	-1.99575E-001	-1.73985E-001	7.53143E-008	-6.47627E-008	1.40077E-007	-1.99000E-001	4.12706E-004	6	..........a	-327.68
	89	3.6	-1.46379E-001	-1.97583E-001	-1.71981E-001	7.44034E-008	-6.48068E-008	1.39210E-007	-1.97000E-001	4.16873E-004	6	..........a	-327.68
	90	3.64	-1.44389E-001	-1.95567E-001	-1.69978E-001	7.42817E-008	-6.30716E-008	1.37353E-007	-1.95000E-001	4.20623E-004	6	..........a	-327.68
	91	3.68	-1.42366E-001	-1.93575E-001	-1.67971E-001	7.49143E-008	-6.38559E-008	1.38770E-007	-1.93000E-001	4.15623E-004	6	..........a	-327.68
	92	3.72	-1.40395E-001	-1.91586E-001	-1.65990E-001	7.48693E-008	-6.30508E-008	1.37920E-007	-1.91000E-001	4.05206E-004	6	..........a	-327.68
	93	3.76	-1.38376E-001	-1.89652E-001	-1.64014E-001	7.60569E-008	-6.22373E-008	1.38294E-007	-1.89000E-001	4.20206E-004	6	..........a	-327.68
	94	3.8	-1.36393E-001	-1.87536E-001	-1.61964E-001	7.53252E-008	-6.28766E-008	1.38202E-007	-1.87000E-001	4.16873E-004	6	..........a	-327.68
	95	3.84	-1.34355E-001	-1.85578E-001	-1.59967E-001	7.57544E-008	-6.10597E-008	1.36814E-007	-1.85000E-001	4.14373E-004	6	..........a	-327.68
	96	3.88	-1.32384E-001	-1.83539E-001	-1.57962E-001	7.61561E-008	-6.15939E-008	1.37750E-007	-1.83000E-001	4.22706E-004	6	..........a	-327.68
	97	3.92	-1.30369E-001	-1.81616E-001	-1.55993E-001	7.57510E-008	-6.17231E-008	1.37474E-007	-1.81000E-001	4.09373E-004	6	..........a	-327.68
	98	3.96	-1.28393E-001	-1.79546E-001	-1.53970E-001	7.70204E-008	-6.10530E-008	1.38073E-007	-1.79000E-001	4.13539E-004	6	..........a	-327.68
	99	4	-1.26335E-001	-1.77578E-001	-1.51956E-001	7.63003E-008	-6.12630E-008	1.37563E-007	-1.77000E-001	4.14373E-004	6	..........a	-327.68
	100	4.04	-1.24406E-001	-1.75569E-001	-1.49988E-001	7.68604E-008	-5.98162E-008	1.36677E-007	-1.75000E-001	4.13123E-004	6	..........a	-327.68
