EXPLAIN
TAG	SQUARE_WAVE
TITLE	LABEL	Square Wave Voltammetry	Test Identifier
DATE	LABEL	8/10/2020	Date
TIME	LABEL	14:42:09	Time
NOTES	NOTES	1	Notes...
	
PSTAT	PSTAT	REF600-24079	Potentiostat
VINIT	QUANT	-3.50000E-001	Initial E (V)
VFINAL	QUANT	-1.50000E-001	Final E (V)
STEPSIZE	QUANT	2.00000E+000	Step Size (mV)
TIMERRES	QUANT	3.33340E-005	&Timer Resolution
FREQUENCY	QUANT	2.50000E+002	Frequency (Hz)
PULSESIZE	QUANT	2.50000E+001	Pulse Size E (mV)
PULSEON	QUANT	4.00000E-003	Pulse &Time (s)
NOISEREJECT	TOGGLE	F	Noise Rejection
AREA	QUANT	2.00000E-002	Sample Area (cm^2)
IMODE	SELECTOR	1	I/E Range Mode
IRANGE	QUANT	1.00000E-002	Max Current (mA)
EQDELAY	IQUANT	10	Equil. Time (s)
IRCOMP	SELECTOR	0	IRComp
PFCOR	QUANT	5.00000E+001	PF Corr. (ohm)
CYCLES	IQUANT	101	C&ycles (#)
ELECTRODETYPE	SELECTOR	0	Electrode Type
STRIPPING	TOGGLE	F	Used for Stripping
POLARITY	TOGGLE	F	Signal Polarity
LINEFREQ	IQUANT	60	Line Frequency (Hz)
INTPERIOD	QUANT	3.3334E-005	Integration Period (s)
SEQUENCER	TOGGLE	TRUE	Run as Sequence
PSTATMODEL	IQUANT	4	Pstat Model
PSTATSECTION	LABEL	REF600-24079	Pstat Section
PSTATSERIALNO	LABEL	24079	Pstat Serial Number
CTRLMODE	IQUANT	1	Control Mode
ELECTROMETER	IQUANT	0	RE=0 or CS=1
IESTAB	IQUANT	2	I/E Stability
CASPEED	IQUANT	6	Control Amp Speed
CONVENTION	IQUANT	1	Current Convention
ICHRANGE	IQUANT	2	Ich Range
ICHRANGEMODE	TOGGLE	F	Ich Auto Range
ICHOFFSETENABLE	TOGGLE	F	Ich Offset Enable
ICHOFFSET	QUANT	0	Ich Offset (V)
ICHFILTER	IQUANT	2	Ich Filter
VCHRANGE	IQUANT	2	Vch Range
VCHRANGEMODE	TOGGLE	F	Vch Auto Range
VCHOFFSETENABLE	TOGGLE	F	Vch Offset Enable
VCHOFFSET	QUANT	0	Vch Offset (V)
VCHFILTER	IQUANT	1	Vch Filter
ACHRANGE	IQUANT	2	Ach Range
ACHOFFSETENABLE	TOGGLE	F	Ach Offset Enable
ACHOFFSET	QUANT	0	Ach Offset (V)
ACHFILTER	IQUANT	1	Ach Filter
IERANGELOWERLIMIT	IQUANT	1	I/E Range Lower Limit
IERANGEMODE	TOGGLE	F	I/E AutoRange
IERANGE	IQUANT	7	I/E Range
POSFEEDENABLE	TOGGLE	F	Positive Feedback IR Comp
POSFEEDRESISTANCE	QUANT	0	Positive Feedback Resistance (ohm)
ACHSELECT	IQUANT	0	Ach Select
SENSECABLEID	IQUANT	13	Sense Cable ID
PWRCABLEID	IQUANT	13	Power Cable ID
DCCALDATE	LABEL	6/30/2020	DC Calibration Date
ACCALDATE	LABEL	6/30/2020	AC Calibration Date
THERMOSELECT	IQUANT	1	Thermo Select
FRAMEWORKVERSION	LABEL	7.8.2	Framework Version
INSTRUMENTVERSION	LABEL	4.40	Instrument Version
CURVE	TABLE	101
	Pt	T	Vfwd	Vrev	Vstep	Ifwd	Irev	Idif	Sig	Ach	IERange	Over	Temp
	#	s	V	V	V	A	A	A	V	V	#	bits	deg C
	0	0.004	-3.27058E-001	-3.82282E-001	-3.54670E-001	2.27318E-008	-6.35647E-006	6.37920E-006	-3.75000E-001	4.03539E-004	7	..........a	-327.68
	1	0.008	-3.19691E-001	-3.80195E-001	-3.49943E-001	7.22230E-006	-7.32560E-006	1.45479E-005	-3.73000E-001	3.86873E-004	7	..........a	-327.68
	2	0.012	-3.17791E-001	-3.78103E-001	-3.47947E-001	7.37365E-006	-7.30210E-006	1.46758E-005	-3.71000E-001	3.49373E-004	7	..........a	-327.68
	3	0.016	-3.15716E-001	-3.76153E-001	-3.45935E-001	7.38282E-006	-7.28518E-006	1.46680E-005	-3.69000E-001	2.91039E-004	7	..........a	-327.68
	4	0.02	-3.13770E-001	-3.74153E-001	-3.43962E-001	7.39249E-006	-7.27210E-006	1.46646E-005	-3.67000E-001	3.61873E-004	7	..........a	-327.68
	5	0.024	-3.11778E-001	-3.72112E-001	-3.41945E-001	7.39074E-006	-7.25976E-006	1.46505E-005	-3.65000E-001	3.28539E-004	7	..........a	-327.68
	6	0.028	-3.09707E-001	-3.70166E-001	-3.39937E-001	7.39699E-006	-7.25126E-006	1.46482E-005	-3.63000E-001	3.16039E-004	7	..........a	-327.68
	7	0.032	-3.07783E-001	-3.68153E-001	-3.37968E-001	7.39749E-006	-7.24551E-006	1.46430E-005	-3.61000E-001	3.41039E-004	7	..........a	-327.68
	8	0.036	-3.05737E-001	-3.66141E-001	-3.35939E-001	7.39782E-006	-7.23592E-006	1.46337E-005	-3.59000E-001	3.20206E-004	7	..........a	-327.68
	9	0.04	-3.03753E-001	-3.64153E-001	-3.33953E-001	7.39749E-006	-7.23376E-006	1.46312E-005	-3.57000E-001	3.53539E-004	7	..........a	-327.68
	10	0.044	-3.01753E-001	-3.62083E-001	-3.31918E-001	7.39524E-006	-7.22726E-006	1.46225E-005	-3.55000E-001	3.49373E-004	7	..........a	-327.68
	11	0.048	-2.99803E-001	-3.60178E-001	-3.29991E-001	7.39657E-006	-7.22467E-006	1.46212E-005	-3.53000E-001	3.49373E-004	7	..........a	-327.68
	12	0.052	-2.97820E-001	-3.58108E-001	-3.27964E-001	7.39540E-006	-7.22167E-006	1.46171E-005	-3.51000E-001	3.24373E-004	7	..........a	-327.68
	13	0.056	-2.95799E-001	-3.56145E-001	-3.25972E-001	7.39374E-006	-7.21584E-006	1.46096E-005	-3.49000E-001	3.32706E-004	7	..........a	-327.68
	14	0.06	-2.93791E-001	-3.54153E-001	-3.23972E-001	7.39657E-006	-7.20984E-006	1.46064E-005	-3.47000E-001	3.41039E-004	7	..........a	-327.68
	15	0.064	-2.91828E-001	-3.52174E-001	-3.22001E-001	7.39749E-006	-7.20659E-006	1.46041E-005	-3.45000E-001	3.61873E-004	7	..........a	-327.68
	16	0.068	-2.89762E-001	-3.50120E-001	-3.19941E-001	7.39699E-006	-7.20625E-006	1.46032E-005	-3.43000E-001	3.57706E-004	7	..........a	-327.68
	17	0.072	-2.87795E-001	-3.48116E-001	-3.17955E-001	7.39624E-006	-7.19959E-006	1.45958E-005	-3.41000E-001	3.07706E-004	7	..........a	-327.68
	18	0.076	-2.85749E-001	-3.46182E-001	-3.15966E-001	7.39949E-006	-7.20092E-006	1.46004E-005	-3.39000E-001	3.74373E-004	7	..........a	-327.68
	19	0.08	-2.83745E-001	-3.44199E-001	-3.13972E-001	7.39582E-006	-7.19584E-006	1.45917E-005	-3.37000E-001	3.82706E-004	7	..........a	-327.68
	20	0.084	-2.81816E-001	-3.42133E-001	-3.11974E-001	7.39624E-006	-7.19575E-006	1.45920E-005	-3.35000E-001	3.53539E-004	7	..........a	-327.68
	21	0.088	-2.79799E-001	-3.40099E-001	-3.09949E-001	7.39632E-006	-7.19550E-006	1.45918E-005	-3.33000E-001	3.36873E-004	7	..........a	-327.68
	22	0.092	-2.77799E-001	-3.38166E-001	-3.07983E-001	7.40340E-006	-7.19158E-006	1.45950E-005	-3.31000E-001	3.41039E-004	7	..........a	-327.68
	23	0.096	-2.75812E-001	-3.36116E-001	-3.05964E-001	7.39965E-006	-7.19142E-006	1.45911E-005	-3.29000E-001	3.49373E-004	7	..........a	-327.68
	24	0.1	-2.73820E-001	-3.34132E-001	-3.03976E-001	7.40440E-006	-7.18642E-006	1.45908E-005	-3.27000E-001	3.95206E-004	7	..........a	-327.68
	25	0.104	-2.71574E-001	-3.32108E-001	-3.01841E-001	7.40340E-006	-7.19042E-006	1.45938E-005	-3.25000E-001	3.49373E-004	7	..........a	-327.68
	26	0.108	-2.69758E-001	-3.30112E-001	-2.99935E-001	7.40707E-006	-7.18775E-006	1.45948E-005	-3.23000E-001	3.61873E-004	7	..........a	-327.68
	27	0.112	-2.67824E-001	-3.28153E-001	-2.97989E-001	7.40999E-006	-7.18808E-006	1.45981E-005	-3.21000E-001	3.45206E-004	7	..........a	-327.68
	28	0.116	-2.65724E-001	-3.26170E-001	-2.95947E-001	7.40807E-006	-7.19017E-006	1.45982E-005	-3.19000E-001	3.74373E-004	7	..........a	-327.68
	29	0.12	-2.63891E-001	-3.24128E-001	-2.94010E-001	7.41341E-006	-7.19083E-006	1.46042E-005	-3.17000E-001	4.07706E-004	7	..........a	-327.68
	30	0.124	-2.61782E-001	-3.22149E-001	-2.91966E-001	7.40999E-006	-7.18942E-006	1.45994E-005	-3.15000E-001	3.91039E-004	7	..........a	-327.68
	31	0.128	-2.59774E-001	-3.20128E-001	-2.89951E-001	7.41949E-006	-7.18600E-006	1.46055E-005	-3.13000E-001	3.57706E-004	7	..........a	-327.68
	32	0.132	-2.57820E-001	-3.18132E-001	-2.87976E-001	7.41466E-006	-7.18658E-006	1.46012E-005	-3.11000E-001	3.70206E-004	7	..........a	-327.68
	33	0.136	-2.55837E-001	-3.16108E-001	-2.85972E-001	7.42249E-006	-7.18692E-006	1.46094E-005	-3.09000E-001	3.41039E-004	7	..........a	-327.68
	34	0.14	-2.53849E-001	-3.14066E-001	-2.83958E-001	7.42974E-006	-7.19734E-006	1.46271E-005	-3.07000E-001	3.61873E-004	7	..........a	-327.68
	35	0.144	-2.51849E-001	-3.12133E-001	-2.81991E-001	7.43066E-006	-7.18833E-006	1.46190E-005	-3.05000E-001	3.61873E-004	7	..........a	-327.68
	36	0.148	-2.49808E-001	-3.10120E-001	-2.79964E-001	7.43107E-006	-7.18933E-006	1.46204E-005	-3.03000E-001	4.07706E-004	7	..........a	-327.68
	37	0.152	-2.47812E-001	-3.08116E-001	-2.77964E-001	7.43157E-006	-7.19017E-006	1.46217E-005	-3.01000E-001	3.61873E-004	7	..........a	-327.68
	38	0.156	-2.45866E-001	-3.06103E-001	-2.75985E-001	7.43758E-006	-7.19225E-006	1.46298E-005	-2.99000E-001	3.70206E-004	7	..........a	-327.68
	39	0.16	-2.43820E-001	-3.04174E-001	-2.73997E-001	7.44041E-006	-7.19158E-006	1.46320E-005	-2.97000E-001	3.86873E-004	7	..........a	-327.68
	40	0.164	-2.41816E-001	-3.02141E-001	-2.71978E-001	7.44541E-006	-7.18958E-006	1.46350E-005	-2.95000E-001	3.82706E-004	7	..........a	-327.68
	41	0.168	-2.39849E-001	-3.00041E-001	-2.69945E-001	7.44383E-006	-7.19075E-006	1.46346E-005	-2.93000E-001	4.07706E-004	7	..........a	-327.68
	42	0.172	-2.37899E-001	-2.98078E-001	-2.67989E-001	7.44666E-006	-7.19033E-006	1.46370E-005	-2.91000E-001	4.07706E-004	7	..........a	-327.68
	43	0.176	-2.35853E-001	-2.96166E-001	-2.66010E-001	7.45291E-006	-7.18825E-006	1.46412E-005	-2.89000E-001	3.57706E-004	7	..........a	-327.68
	44	0.18	-2.33808E-001	-2.94099E-001	-2.63953E-001	7.45249E-006	-7.18892E-006	1.46414E-005	-2.87000E-001	3.36873E-004	7	..........a	-327.68
	45	0.184	-2.31862E-001	-2.92028E-001	-2.61945E-001	7.45374E-006	-7.18633E-006	1.46401E-005	-2.85000E-001	3.57706E-004	7	..........a	-327.68
	46	0.188	-2.29883E-001	-2.90045E-001	-2.59964E-001	7.44916E-006	-7.18500E-006	1.46342E-005	-2.83000E-001	3.28539E-004	7	..........a	-327.68
	47	0.192	-2.27874E-001	-2.88070E-001	-2.57972E-001	7.45833E-006	-7.18417E-006	1.46425E-005	-2.81000E-001	3.32706E-004	7	..........a	-327.68
	48	0.196	-2.25858E-001	-2.86078E-001	-2.55968E-001	7.45141E-006	-7.17933E-006	1.46307E-005	-2.79000E-001	3.70206E-004	7	..........a	-327.68
	49	0.2	-2.23866E-001	-2.84116E-001	-2.53991E-001	7.45399E-006	-7.17317E-006	1.46272E-005	-2.77000E-001	3.49373E-004	7	..........a	-327.68
	50	0.204	-2.21837E-001	-2.82028E-001	-2.51933E-001	7.45283E-006	-7.17433E-006	1.46272E-005	-2.75000E-001	3.41039E-004	7	..........a	-327.68
	51	0.208	-2.19895E-001	-2.80087E-001	-2.49991E-001	7.45291E-006	-7.16775E-006	1.46207E-005	-2.73000E-001	3.32706E-004	7	..........a	-327.68
	52	0.212	-2.17912E-001	-2.78095E-001	-2.48003E-001	7.45058E-006	-7.16341E-006	1.46140E-005	-2.71000E-001	3.86873E-004	7	..........a	-327.68
	53	0.216	-2.15883E-001	-2.76053E-001	-2.45968E-001	7.44949E-006	-7.16000E-006	1.46095E-005	-2.69000E-001	3.24373E-004	7	..........a	-327.68
	54	0.22	-2.13887E-001	-2.74049E-001	-2.43968E-001	7.44391E-006	-7.15883E-006	1.46027E-005	-2.67000E-001	3.45206E-004	7	..........a	-327.68
	55	0.224	-2.11828E-001	-2.72037E-001	-2.41933E-001	7.44058E-006	-7.15475E-006	1.45953E-005	-2.65000E-001	3.66039E-004	7	..........a	-327.68
	56	0.228	-2.09870E-001	-2.70103E-001	-2.39987E-001	7.44366E-006	-7.14566E-006	1.45893E-005	-2.63000E-001	3.74373E-004	7	..........a	-327.68
	57	0.232	-2.07887E-001	-2.68053E-001	-2.37970E-001	7.43207E-006	-7.14341E-006	1.45755E-005	-2.61000E-001	3.61873E-004	7	..........a	-327.68
	58	0.236	-2.05837E-001	-2.66103E-001	-2.35970E-001	7.43482E-006	-7.13549E-006	1.45703E-005	-2.59000E-001	3.82706E-004	7	..........a	-327.68
	59	0.24	-2.03799E-001	-2.64103E-001	-2.33951E-001	7.42532E-006	-7.13149E-006	1.45568E-005	-2.57000E-001	3.28539E-004	7	..........a	-327.68
	60	0.244	-2.01858E-001	-2.62058E-001	-2.31958E-001	7.42674E-006	-7.12274E-006	1.45495E-005	-2.55000E-001	3.66039E-004	7	..........a	-327.68
	61	0.248	-1.99820E-001	-2.60120E-001	-2.29970E-001	7.42016E-006	-7.12133E-006	1.45415E-005	-2.53000E-001	3.45206E-004	7	..........a	-327.68
	62	0.252	-1.97870E-001	-2.58112E-001	-2.27991E-001	7.41224E-006	-7.11182E-006	1.45241E-005	-2.51000E-001	3.45206E-004	7	..........a	-327.68
	63	0.256	-1.95891E-001	-2.56083E-001	-2.25987E-001	7.40982E-006	-7.10899E-006	1.45188E-005	-2.49000E-001	3.53539E-004	7	..........a	-327.68
	64	0.26	-1.93841E-001	-2.54103E-001	-2.23972E-001	7.40524E-006	-7.10224E-006	1.45075E-005	-2.47000E-001	3.61873E-004	7	..........a	-327.68
	65	0.264	-1.91841E-001	-2.52078E-001	-2.21960E-001	7.40365E-006	-7.09699E-006	1.45006E-005	-2.45000E-001	2.95206E-004	7	..........a	-327.68
	66	0.268	-1.89808E-001	-2.50128E-001	-2.19968E-001	7.39424E-006	-7.08924E-006	1.44835E-005	-2.43000E-001	3.61873E-004	7	..........a	-327.68
	67	0.272	-1.87828E-001	-2.48083E-001	-2.17955E-001	7.39074E-006	-7.08740E-006	1.44781E-005	-2.41000E-001	3.32706E-004	7	..........a	-327.68
	68	0.276	-1.85816E-001	-2.46124E-001	-2.15970E-001	7.38982E-006	-7.08282E-006	1.44726E-005	-2.39000E-001	3.91039E-004	7	..........a	-327.68
	69	0.28	-1.83787E-001	-2.44120E-001	-2.13953E-001	7.39315E-006	-7.07932E-006	1.44725E-005	-2.37000E-001	4.16039E-004	7	..........a	-327.68
	70	0.284	-1.81783E-001	-2.42141E-001	-2.11962E-001	7.38090E-006	-7.07632E-006	1.44572E-005	-2.35000E-001	3.49373E-004	7	..........a	-327.68
	71	0.288	-1.79766E-001	-2.40074E-001	-2.09920E-001	7.37340E-006	-7.07123E-006	1.44446E-005	-2.33000E-001	3.70206E-004	7	..........a	-327.68
	72	0.292	-1.77812E-001	-2.38099E-001	-2.07955E-001	7.37490E-006	-7.06748E-006	1.44424E-005	-2.31000E-001	4.16039E-004	7	..........a	-327.68
	73	0.296	-1.75816E-001	-2.36145E-001	-2.05980E-001	7.36940E-006	-7.06140E-006	1.44308E-005	-2.29000E-001	3.74373E-004	7	..........a	-327.68
	74	0.3	-1.73837E-001	-2.34116E-001	-2.03976E-001	7.36698E-006	-7.05757E-006	1.44245E-005	-2.27000E-001	3.32706E-004	7	..........a	-327.68
	75	0.304	-1.71741E-001	-2.32162E-001	-2.01951E-001	7.36115E-006	-7.05257E-006	1.44137E-005	-2.25000E-001	3.41039E-004	7	..........a	-327.68
	76	0.308	-1.69783E-001	-2.30149E-001	-1.99966E-001	7.36123E-006	-7.04781E-006	1.44090E-005	-2.23000E-001	3.57706E-004	7	..........a	-327.68
	77	0.312	-1.67795E-001	-2.28128E-001	-1.97962E-001	7.36081E-006	-7.04898E-006	1.44098E-005	-2.21000E-001	3.74373E-004	7	..........a	-327.68
	78	0.316	-1.65770E-001	-2.26133E-001	-1.95951E-001	7.35698E-006	-7.04573E-006	1.44027E-005	-2.19000E-001	3.36873E-004	7	..........a	-327.68
	79	0.32	-1.63724E-001	-2.24195E-001	-1.93960E-001	7.35373E-006	-7.04515E-006	1.43989E-005	-2.17000E-001	3.28539E-004	7	..........a	-327.68
	80	0.324	-1.61741E-001	-2.22174E-001	-1.91958E-001	7.34940E-006	-7.04231E-006	1.43917E-005	-2.15000E-001	3.36873E-004	7	..........a	-327.68
	81	0.328	-1.59795E-001	-2.20158E-001	-1.89976E-001	7.35265E-006	-7.04073E-006	1.43934E-005	-2.13000E-001	3.66039E-004	7	..........a	-327.68
	82	0.332	-1.57758E-001	-2.18174E-001	-1.87966E-001	7.34623E-006	-7.03873E-006	1.43850E-005	-2.11000E-001	3.82706E-004	7	..........a	-327.68
	83	0.336	-1.55753E-001	-2.16145E-001	-1.85949E-001	7.35015E-006	-7.03573E-006	1.43859E-005	-2.09000E-001	3.53539E-004	7	..........a	-327.68
	84	0.34	-1.53762E-001	-2.14149E-001	-1.83955E-001	7.34323E-006	-7.03215E-006	1.43754E-005	-2.07000E-001	3.61873E-004	7	..........a	-327.68
	85	0.344	-1.51783E-001	-2.12149E-001	-1.81966E-001	7.34565E-006	-7.03006E-006	1.43757E-005	-2.05000E-001	3.53539E-004	7	..........a	-327.68
	86	0.348	-1.49812E-001	-2.10145E-001	-1.79978E-001	7.34556E-006	-7.03273E-006	1.43783E-005	-2.03000E-001	3.86873E-004	7	..........a	-327.68
	87	0.352	-1.47808E-001	-2.08162E-001	-1.77985E-001	7.34390E-006	-7.03240E-006	1.43763E-005	-2.01000E-001	2.57706E-004	7	..........a	-327.68
	88	0.356	-1.45745E-001	-2.06128E-001	-1.75937E-001	7.34315E-006	-7.03265E-006	1.43758E-005	-1.99000E-001	2.86873E-004	7	..........a	-327.68
	89	0.36	-1.43774E-001	-2.04183E-001	-1.73978E-001	7.34298E-006	-7.03173E-006	1.43747E-005	-1.97000E-001	3.24373E-004	7	..........a	-327.68
	90	0.364	-1.41774E-001	-2.02162E-001	-1.71968E-001	7.34698E-006	-7.03173E-006	1.43787E-005	-1.95000E-001	3.53539E-004	7	..........a	-327.68
	91	0.368	-1.39783E-001	-2.00195E-001	-1.69989E-001	7.34406E-006	-7.03073E-006	1.43748E-005	-1.93000E-001	3.82706E-004	7	..........a	-327.68
	92	0.372	-1.37766E-001	-1.98220E-001	-1.67993E-001	7.34540E-006	-7.02848E-006	1.43739E-005	-1.91000E-001	3.57706E-004	7	..........a	-327.68
	93	0.376	-1.35762E-001	-1.96212E-001	-1.65987E-001	7.34640E-006	-7.03031E-006	1.43767E-005	-1.89000E-001	3.28539E-004	7	..........a	-327.68
	94	0.38	-1.33758E-001	-1.94166E-001	-1.63962E-001	7.34798E-006	-7.02806E-006	1.43760E-005	-1.87000E-001	3.74373E-004	7	..........a	-327.68
	95	0.384	-1.31745E-001	-1.92195E-001	-1.61970E-001	7.34540E-006	-7.02881E-006	1.43742E-005	-1.85000E-001	3.61873E-004	7	..........a	-327.68
	96	0.388	-1.29770E-001	-1.90137E-001	-1.59953E-001	7.34665E-006	-7.02990E-006	1.43765E-005	-1.83000E-001	3.78539E-004	7	..........a	-327.68
	97	0.392	-1.27770E-001	-1.88149E-001	-1.57960E-001	7.34965E-006	-7.02906E-006	1.43787E-005	-1.81000E-001	3.07706E-004	7	..........a	-327.68
	98	0.396	-1.25745E-001	-1.86166E-001	-1.55955E-001	7.34931E-006	-7.03365E-006	1.43830E-005	-1.79000E-001	3.91039E-004	7	..........a	-327.68
	99	0.4	-1.23778E-001	-1.84191E-001	-1.53985E-001	7.35523E-006	-7.03390E-006	1.43891E-005	-1.77000E-001	4.20206E-004	7	..........a	-327.68
	100	0.404	-1.21770E-001	-1.82228E-001	-1.51999E-001	7.35281E-006	-7.03340E-006	1.43862E-005	-1.75000E-001	3.57706E-004	7	..........a	-327.68
