EXPLAIN
TAG	SQUARE_WAVE
TITLE	LABEL	Square Wave Voltammetry	Test Identifier
DATE	LABEL	8/10/2020	Date
TIME	LABEL	19:03:28	Time
NOTES	NOTES	1	Notes...
	
PSTAT	PSTAT	REF600-24079	Potentiostat
VINIT	QUANT	-3.50000E-001	Initial E (V)
VFINAL	QUANT	-1.50000E-001	Final E (V)
STEPSIZE	QUANT	2.00000E+000	Step Size (mV)
TIMERRES	QUANT	3.33340E-005	&Timer Resolution
FREQUENCY	QUANT	7.50000E+001	Frequency (Hz)
PULSESIZE	QUANT	2.50000E+001	Pulse Size E (mV)
PULSEON	QUANT	1.33333E-002	Pulse &Time (s)
NOISEREJECT	TOGGLE	F	Noise Rejection
AREA	QUANT	2.00000E-002	Sample Area (cm^2)
IMODE	SELECTOR	1	I/E Range Mode
IRANGE	QUANT	1.00000E-003	Max Current (mA)
EQDELAY	IQUANT	10	Equil. Time (s)
IRCOMP	SELECTOR	0	IRComp
PFCOR	QUANT	5.00000E+001	PF Corr. (ohm)
CYCLES	IQUANT	101	C&ycles (#)
ELECTRODETYPE	SELECTOR	0	Electrode Type
STRIPPING	TOGGLE	F	Used for Stripping
POLARITY	TOGGLE	F	Signal Polarity
LINEFREQ	IQUANT	60	Line Frequency (Hz)
INTPERIOD	QUANT	3.3334E-005	Integration Period (s)
SEQUENCER	TOGGLE	TRUE	Run as Sequence
PSTATMODEL	IQUANT	4	Pstat Model
PSTATSECTION	LABEL	REF600-24079	Pstat Section
PSTATSERIALNO	LABEL	24079	Pstat Serial Number
CTRLMODE	IQUANT	1	Control Mode
ELECTROMETER	IQUANT	0	RE=0 or CS=1
IESTAB	IQUANT	2	I/E Stability
CASPEED	IQUANT	6	Control Amp Speed
CONVENTION	IQUANT	1	Current Convention
ICHRANGE	IQUANT	2	Ich Range
ICHRANGEMODE	TOGGLE	F	Ich Auto Range
ICHOFFSETENABLE	TOGGLE	F	Ich Offset Enable
ICHOFFSET	QUANT	0	Ich Offset (V)
ICHFILTER	IQUANT	2	Ich Filter
VCHRANGE	IQUANT	2	Vch Range
VCHRANGEMODE	TOGGLE	F	Vch Auto Range
VCHOFFSETENABLE	TOGGLE	F	Vch Offset Enable
VCHOFFSET	QUANT	0	Vch Offset (V)
VCHFILTER	IQUANT	2	Vch Filter
ACHRANGE	IQUANT	2	Ach Range
ACHOFFSETENABLE	TOGGLE	F	Ach Offset Enable
ACHOFFSET	QUANT	0	Ach Offset (V)
ACHFILTER	IQUANT	1	Ach Filter
IERANGELOWERLIMIT	IQUANT	1	I/E Range Lower Limit
IERANGEMODE	TOGGLE	F	I/E AutoRange
IERANGE	IQUANT	6	I/E Range
POSFEEDENABLE	TOGGLE	F	Positive Feedback IR Comp
POSFEEDRESISTANCE	QUANT	0	Positive Feedback Resistance (ohm)
ACHSELECT	IQUANT	0	Ach Select
SENSECABLEID	IQUANT	13	Sense Cable ID
PWRCABLEID	IQUANT	13	Power Cable ID
DCCALDATE	LABEL	6/30/2020	DC Calibration Date
ACCALDATE	LABEL	6/30/2020	AC Calibration Date
THERMOSELECT	IQUANT	1	Thermo Select
FRAMEWORKVERSION	LABEL	7.8.2	Framework Version
INSTRUMENTVERSION	LABEL	4.40	Instrument Version
CURVE	TABLE	101
	Pt	T	Vfwd	Vrev	Vstep	Ifwd	Irev	Idif	Sig	Ach	IERange	Over	Temp
	#	s	V	V	V	A	A	A	V	V	#	bits	deg C
	0	0.013333	-3.24977E-001	-3.87823E-001	-3.56400E-001	-1.51749E-007	-1.15243E-006	1.00068E-006	-3.75000E-001	3.93956E-004	6	..........a	-327.68
	1	0.026667	-3.06742E-001	-3.89205E-001	-3.47973E-001	6.51563E-007	-1.10860E-006	1.76016E-006	-3.73000E-001	3.76456E-004	6	.....h....a	-327.68
	2	0.04	-3.04037E-001	-3.87342E-001	-3.45690E-001	6.26613E-007	-1.07509E-006	1.70170E-006	-3.71000E-001	3.80206E-004	6	.....h....a	-327.68
	3	0.053333	-3.02031E-001	-3.85348E-001	-3.43690E-001	6.27890E-007	-1.05999E-006	1.68788E-006	-3.69000E-001	3.92706E-004	6	.....h....a	-327.68
	4	0.066667	-3.00031E-001	-3.83351E-001	-3.41691E-001	6.31966E-007	-1.04689E-006	1.67885E-006	-3.67000E-001	4.06456E-004	6	.....h....a	-327.68
	5	0.08	-2.98048E-001	-3.81380E-001	-3.39714E-001	6.32909E-007	-1.03591E-006	1.66882E-006	-3.65000E-001	3.95206E-004	6	.....h....a	-327.68
	6	0.093333	-2.96020E-001	-3.79370E-001	-3.37695E-001	6.34341E-007	-1.02477E-006	1.65911E-006	-3.63000E-001	3.87706E-004	6	.....h....a	-327.68
	7	0.106667	-2.94037E-001	-3.77378E-001	-3.35708E-001	6.36427E-007	-1.01464E-006	1.65107E-006	-3.61000E-001	3.61456E-004	6	.....h....a	-327.68
	8	0.12	-2.92015E-001	-3.75375E-001	-3.33695E-001	6.38457E-007	-1.00527E-006	1.64373E-006	-3.59000E-001	4.02706E-004	6	.....h....a	-327.68
	9	0.133333	-2.90046E-001	-3.73365E-001	-3.31705E-001	6.39214E-007	-9.95739E-007	1.63495E-006	-3.57000E-001	3.71456E-004	6	.....h....a	-327.68
	10	0.146667	-2.87998E-001	-3.71365E-001	-3.29682E-001	6.39379E-007	-9.86112E-007	1.62549E-006	-3.55000E-001	3.83956E-004	6	.....h....a	-327.68
	11	0.16	-2.86042E-001	-3.69371E-001	-3.27707E-001	6.41287E-007	-9.77491E-007	1.61878E-006	-3.53000E-001	3.98956E-004	6	.....h....a	-327.68
	12	0.173333	-2.84042E-001	-3.67388E-001	-3.25715E-001	6.42267E-007	-9.69225E-007	1.61149E-006	-3.51000E-001	3.91456E-004	6	.....h....a	-327.68
	13	0.186667	-2.82047E-001	-3.65368E-001	-3.23708E-001	6.44115E-007	-9.61827E-007	1.60594E-006	-3.49000E-001	3.70206E-004	6	.....h....a	-327.68
	14	0.2	-2.80047E-001	-3.63360E-001	-3.21703E-001	6.45593E-007	-9.53701E-007	1.59929E-006	-3.47000E-001	4.01456E-004	6	.....h....a	-327.68
	15	0.213333	-2.78065E-001	-3.61356E-001	-3.19710E-001	6.45540E-007	-9.45222E-007	1.59076E-006	-3.45000E-001	3.90206E-004	6	.....h....a	-327.68
	16	0.226667	-2.76041E-001	-3.59368E-001	-3.17705E-001	6.47538E-007	-9.37784E-007	1.58532E-006	-3.43000E-001	4.08956E-004	6	.....h....a	-327.68
	17	0.24	-2.74071E-001	-3.57388E-001	-3.15730E-001	6.48293E-007	-9.31755E-007	1.58005E-006	-3.41000E-001	3.90206E-004	6	.....h....a	-327.68
	18	0.253333	-2.72057E-001	-3.55367E-001	-3.13712E-001	6.50488E-007	-9.25022E-007	1.57551E-006	-3.39000E-001	3.83956E-004	6	.....h....a	-327.68
	19	0.266667	-2.70067E-001	-3.53387E-001	-3.11727E-001	6.51736E-007	-9.17309E-007	1.56904E-006	-3.37000E-001	3.91456E-004	6	.....h....a	-327.68
	20	0.28	-2.68043E-001	-3.51395E-001	-3.09719E-001	6.51906E-007	-9.10640E-007	1.56255E-006	-3.35000E-001	3.87706E-004	6	.....h....a	-327.68
	21	0.293333	-2.66063E-001	-3.49378E-001	-3.07721E-001	6.54081E-007	-9.03807E-007	1.55789E-006	-3.33000E-001	4.03956E-004	6	.....h....a	-327.68
	22	0.306667	-2.64043E-001	-3.47390E-001	-3.05717E-001	6.55079E-007	-8.98556E-007	1.55364E-006	-3.31000E-001	3.76456E-004	6	.....h....a	-327.68
	23	0.32	-2.62073E-001	-3.45387E-001	-3.03730E-001	6.56859E-007	-8.93328E-007	1.55019E-006	-3.29000E-001	4.05206E-004	6	.....h....a	-327.68
	24	0.333333	-2.60055E-001	-3.43385E-001	-3.01720E-001	6.59289E-007	-8.87110E-007	1.54640E-006	-3.27000E-001	3.98956E-004	6	.....h....a	-327.68
	25	0.346667	-2.58083E-001	-3.41383E-001	-2.99733E-001	6.60250E-007	-8.81484E-007	1.54173E-006	-3.25000E-001	3.72706E-004	6	.....h....a	-327.68
	26	0.36	-2.56071E-001	-3.39371E-001	-2.97721E-001	6.63462E-007	-8.75856E-007	1.53932E-006	-3.23000E-001	3.68956E-004	6	.....h....a	-327.68
	27	0.373333	-2.54090E-001	-3.37367E-001	-2.95728E-001	6.64980E-007	-8.71683E-007	1.53666E-006	-3.21000E-001	3.90206E-004	6	.....h....a	-327.68
	28	0.386667	-2.52103E-001	-3.35361E-001	-2.93732E-001	6.66973E-007	-8.66827E-007	1.53380E-006	-3.19000E-001	3.72706E-004	6	.....h....a	-327.68
	29	0.4	-2.50116E-001	-3.33393E-001	-2.91755E-001	6.67875E-007	-8.61767E-007	1.52964E-006	-3.17000E-001	3.91456E-004	6	.....h....a	-327.68
	30	0.413333	-2.48107E-001	-3.31382E-001	-2.89745E-001	6.69451E-007	-8.57169E-007	1.52662E-006	-3.15000E-001	3.88956E-004	6	.....h....a	-327.68
	31	0.426667	-2.46110E-001	-3.29378E-001	-2.87744E-001	6.71503E-007	-8.52750E-007	1.52425E-006	-3.13000E-001	4.06456E-004	6	.....h....a	-327.68
	32	0.44	-2.44101E-001	-3.27398E-001	-2.85750E-001	6.74461E-007	-8.49708E-007	1.52417E-006	-3.11000E-001	3.76456E-004	6	.....h....a	-327.68
	33	0.453333	-2.42121E-001	-3.25408E-001	-2.83765E-001	6.77242E-007	-8.46320E-007	1.52356E-006	-3.09000E-001	3.83956E-004	6	.....h....a	-327.68
	34	0.466667	-2.40093E-001	-3.23387E-001	-2.81740E-001	6.79527E-007	-8.41491E-007	1.52102E-006	-3.07000E-001	4.11456E-004	6	.....h....a	-327.68
	35	0.48	-2.38126E-001	-3.21396E-001	-2.79761E-001	6.81122E-007	-8.37133E-007	1.51826E-006	-3.05000E-001	4.02706E-004	6	.....h....a	-327.68
	36	0.493333	-2.36112E-001	-3.19378E-001	-2.77745E-001	6.82210E-007	-8.33480E-007	1.51569E-006	-3.03000E-001	3.85206E-004	6	.....h....a	-327.68
	37	0.506667	-2.34116E-001	-3.17380E-001	-2.75748E-001	6.85035E-007	-8.30695E-007	1.51573E-006	-3.01000E-001	3.93956E-004	6	.....h....a	-327.68
	38	0.52	-2.32077E-001	-3.15372E-001	-2.73725E-001	6.87323E-007	-8.27792E-007	1.51512E-006	-2.99000E-001	3.93956E-004	6	.....h....a	-327.68
	39	0.533333	-2.30127E-001	-3.13355E-001	-2.71741E-001	6.90016E-007	-8.23907E-007	1.51392E-006	-2.97000E-001	3.65206E-004	6	.....h....a	-327.68
	40	0.546667	-2.28146E-001	-3.11362E-001	-2.69754E-001	6.91661E-007	-8.21099E-007	1.51276E-006	-2.95000E-001	3.88956E-004	6	.....h....a	-327.68
	41	0.56	-2.26115E-001	-3.09376E-001	-2.67745E-001	6.93129E-007	-8.16483E-007	1.50961E-006	-2.93000E-001	3.90206E-004	6	.....h....a	-327.68
	42	0.573333	-2.24156E-001	-3.07417E-001	-2.65787E-001	6.95176E-007	-8.14651E-007	1.50983E-006	-2.91000E-001	3.95206E-004	6	.....h....a	-327.68
	43	0.586667	-2.22148E-001	-3.05383E-001	-2.63766E-001	6.97414E-007	-8.11408E-007	1.50882E-006	-2.89000E-001	3.96456E-004	6	.....h....a	-327.68
	44	0.6	-2.20133E-001	-3.03386E-001	-2.61760E-001	6.99525E-007	-8.08120E-007	1.50764E-006	-2.87000E-001	3.98956E-004	6	.....h....a	-327.68
	45	0.613333	-2.18115E-001	-3.01393E-001	-2.59754E-001	7.00947E-007	-8.05137E-007	1.50608E-006	-2.85000E-001	4.06456E-004	6	.....h....a	-327.68
	46	0.626667	-2.16112E-001	-2.99378E-001	-2.57745E-001	7.02285E-007	-8.01706E-007	1.50399E-006	-2.83000E-001	3.96456E-004	6	.....h....a	-327.68
	47	0.64	-2.14142E-001	-2.97368E-001	-2.55755E-001	7.04430E-007	-7.99421E-007	1.50385E-006	-2.81000E-001	3.73956E-004	6	.....h....a	-327.68
	48	0.653333	-2.12130E-001	-2.95370E-001	-2.53750E-001	7.06308E-007	-7.96466E-007	1.50277E-006	-2.79000E-001	3.96456E-004	6	.....h....a	-327.68
	49	0.666667	-2.10125E-001	-2.93375E-001	-2.51750E-001	7.07916E-007	-7.93628E-007	1.50154E-006	-2.77000E-001	3.78956E-004	6	.....h....a	-327.68
	50	0.68	-2.08126E-001	-2.91362E-001	-2.49744E-001	7.07158E-007	-7.89950E-007	1.49711E-006	-2.75000E-001	4.07706E-004	6	.....h....a	-327.68
	51	0.693333	-2.06146E-001	-2.89356E-001	-2.47751E-001	7.07953E-007	-7.85792E-007	1.49375E-006	-2.73000E-001	4.15206E-004	6	.....h....a	-327.68
	52	0.706667	-2.04135E-001	-2.87358E-001	-2.45747E-001	7.09818E-007	-7.83812E-007	1.49363E-006	-2.71000E-001	4.00206E-004	6	.....h....a	-327.68
	53	0.72	-2.02163E-001	-2.85365E-001	-2.43764E-001	7.11251E-007	-7.81556E-007	1.49281E-006	-2.69000E-001	3.67706E-004	6	.....h....a	-327.68
	54	0.733333	-2.00152E-001	-2.83353E-001	-2.41753E-001	7.13086E-007	-7.78714E-007	1.49180E-006	-2.67000E-001	3.80206E-004	6	.....h....a	-327.68
	55	0.746667	-1.98172E-001	-2.81377E-001	-2.39775E-001	7.11699E-007	-7.74501E-007	1.48620E-006	-2.65000E-001	3.83956E-004	6	.....h....a	-327.68
	56	0.76	-1.96155E-001	-2.79362E-001	-2.37758E-001	7.13181E-007	-7.71668E-007	1.48485E-006	-2.63000E-001	4.02706E-004	6	.....h....a	-327.68
	57	0.773333	-1.94137E-001	-2.77372E-001	-2.35755E-001	7.14371E-007	-7.69412E-007	1.48378E-006	-2.61000E-001	4.06456E-004	6	.....h....a	-327.68
	58	0.786667	-1.92147E-001	-2.75355E-001	-2.33751E-001	7.14571E-007	-7.65807E-007	1.48038E-006	-2.59000E-001	3.93956E-004	6	.....h....a	-327.68
	59	0.8	-1.90122E-001	-2.73366E-001	-2.31744E-001	7.15617E-007	-7.63279E-007	1.47890E-006	-2.57000E-001	3.67706E-004	6	.....h....a	-327.68
	60	0.813333	-1.88167E-001	-2.71377E-001	-2.29772E-001	7.15051E-007	-7.59624E-007	1.47468E-006	-2.55000E-001	3.82706E-004	6	.....h....a	-327.68
	61	0.826667	-1.86145E-001	-2.69370E-001	-2.27757E-001	7.15422E-007	-7.56778E-007	1.47220E-006	-2.53000E-001	3.66456E-004	6	.....h....a	-327.68
	62	0.84	-1.84125E-001	-2.67357E-001	-2.25741E-001	7.15829E-007	-7.54090E-007	1.46992E-006	-2.51000E-001	3.76456E-004	6	.....h....a	-327.68
	63	0.853333	-1.82146E-001	-2.65325E-001	-2.23735E-001	7.16737E-007	-7.52863E-007	1.46960E-006	-2.49000E-001	4.05206E-004	6	.....h....a	-327.68
	64	0.866667	-1.80137E-001	-2.63357E-001	-2.21747E-001	7.17757E-007	-7.48602E-007	1.46636E-006	-2.47000E-001	3.68956E-004	6	.....h....a	-327.68
	65	0.88	-1.78132E-001	-2.61346E-001	-2.19739E-001	7.16474E-007	-7.45394E-007	1.46187E-006	-2.45000E-001	4.23956E-004	6	.....h....a	-327.68
	66	0.893333	-1.76138E-001	-2.59361E-001	-2.17750E-001	7.16812E-007	-7.42399E-007	1.45921E-006	-2.43000E-001	3.91456E-004	6	.....h....a	-327.68
	67	0.906667	-1.74140E-001	-2.57353E-001	-2.15747E-001	7.18137E-007	-7.40809E-007	1.45895E-006	-2.41000E-001	3.86456E-004	6	.....h....a	-327.68
	68	0.92	-1.72142E-001	-2.55367E-001	-2.13755E-001	7.17584E-007	-7.38061E-007	1.45565E-006	-2.39000E-001	3.86456E-004	6	.....h....a	-327.68
	69	0.933333	-1.70158E-001	-2.53366E-001	-2.11762E-001	7.19450E-007	-7.35125E-007	1.45458E-006	-2.37000E-001	3.81456E-004	6	.....h....a	-327.68
	70	0.946667	-1.68146E-001	-2.51370E-001	-2.09758E-001	7.18264E-007	-7.32643E-007	1.45091E-006	-2.35000E-001	3.85206E-004	6	.....h....a	-327.68
	71	0.96	-1.66150E-001	-2.49365E-001	-2.07757E-001	7.18149E-007	-7.29862E-007	1.44801E-006	-2.33000E-001	4.03956E-004	6	.....h....a	-327.68
	72	0.97333	-1.64127E-001	-2.47373E-001	-2.05750E-001	7.18632E-007	-7.27940E-007	1.44657E-006	-2.31000E-001	3.80206E-004	6	.....h....a	-327.68
	73	0.98667	-1.62126E-001	-2.45353E-001	-2.03740E-001	7.19267E-007	-7.26209E-007	1.44548E-006	-2.29000E-001	3.93956E-004	6	.....h....a	-327.68
	74	1	-1.60115E-001	-2.43362E-001	-2.01738E-001	7.20825E-007	-7.24069E-007	1.44489E-006	-2.27000E-001	3.78956E-004	6	.....h....a	-327.68
	75	1.01333	-1.58126E-001	-2.41343E-001	-1.99735E-001	7.20792E-007	-7.22339E-007	1.44313E-006	-2.25000E-001	3.78956E-004	6	.....h....a	-327.68
	76	1.02667	-1.56128E-001	-2.39353E-001	-1.97741E-001	7.21192E-007	-7.19146E-007	1.44034E-006	-2.23000E-001	3.78956E-004	6	.....h....a	-327.68
	77	1.04	-1.54162E-001	-2.37392E-001	-1.95777E-001	7.22908E-007	-7.17628E-007	1.44054E-006	-2.21000E-001	3.92706E-004	6	.....h....a	-327.68
	78	1.05333	-1.52121E-001	-2.35372E-001	-1.93747E-001	7.22945E-007	-7.16106E-007	1.43905E-006	-2.19000E-001	3.92706E-004	6	.....h....a	-327.68
	79	1.06667	-1.50167E-001	-2.33356E-001	-1.91762E-001	7.23955E-007	-7.13843E-007	1.43780E-006	-2.17000E-001	3.86456E-004	6	.....h....a	-327.68
	80	1.08	-1.48148E-001	-2.31365E-001	-1.89757E-001	7.23898E-007	-7.12530E-007	1.43643E-006	-2.15000E-001	3.81456E-004	6	.....h....a	-327.68
	81	1.09333	-1.46166E-001	-2.29377E-001	-1.87772E-001	7.24565E-007	-7.11352E-007	1.43592E-006	-2.13000E-001	3.91456E-004	6	.....h....a	-327.68
	82	1.10667	-1.44140E-001	-2.27396E-001	-1.85768E-001	7.26683E-007	-7.11167E-007	1.43785E-006	-2.11000E-001	4.01456E-004	6	.....h....a	-327.68
	83	1.12	-1.42160E-001	-2.25376E-001	-1.83768E-001	7.28376E-007	-7.09605E-007	1.43798E-006	-2.09000E-001	3.91456E-004	6	.....h....a	-327.68
	84	1.13333	-1.40141E-001	-2.23385E-001	-1.81763E-001	7.29666E-007	-7.07712E-007	1.43738E-006	-2.07000E-001	3.81456E-004	6	.....h....a	-327.68
	85	1.14667	-1.38135E-001	-2.21392E-001	-1.79763E-001	7.30683E-007	-7.07364E-007	1.43805E-006	-2.05000E-001	3.91456E-004	6	.....h....a	-327.68
	86	1.16	-1.36136E-001	-2.19381E-001	-1.77758E-001	7.31724E-007	-7.04554E-007	1.43628E-006	-2.03000E-001	3.85206E-004	6	.....h....a	-327.68
	87	1.17333	-1.34150E-001	-2.17405E-001	-1.75777E-001	7.33264E-007	-7.06299E-007	1.43956E-006	-2.01000E-001	3.53956E-004	6	.....h....a	-327.68
	88	1.18667	-1.32138E-001	-2.15383E-001	-1.73761E-001	7.35007E-007	-7.04914E-007	1.43992E-006	-1.99000E-001	3.81456E-004	6	.....h....a	-327.68
	89	1.2	-1.30161E-001	-2.13393E-001	-1.71777E-001	7.37842E-007	-7.04852E-007	1.44269E-006	-1.97000E-001	3.92706E-004	6	.....h....a	-327.68
	90	1.21333	-1.28116E-001	-2.11367E-001	-1.69742E-001	7.38990E-007	-7.03521E-007	1.44251E-006	-1.95000E-001	4.00206E-004	6	.....h....a	-327.68
	91	1.22667	-1.26156E-001	-2.09396E-001	-1.67776E-001	7.39767E-007	-7.02486E-007	1.44225E-006	-1.93000E-001	3.98956E-004	6	.....h....a	-327.68
	92	1.24	-1.24150E-001	-2.07402E-001	-1.65776E-001	7.42778E-007	-7.03791E-007	1.44657E-006	-1.91000E-001	3.67706E-004	6	.....h....a	-327.68
	93	1.25333	-1.22172E-001	-2.05395E-001	-1.63783E-001	7.44670E-007	-7.04319E-007	1.44899E-006	-1.89000E-001	3.80206E-004	6	.....h....a	-327.68
	94	1.26667	-1.20180E-001	-2.03413E-001	-1.61797E-001	7.47968E-007	-7.03974E-007	1.45194E-006	-1.87000E-001	4.07706E-004	6	.....h....a	-327.68
	95	1.28	-1.18146E-001	-2.01410E-001	-1.59778E-001	7.49851E-007	-7.03997E-007	1.45385E-006	-1.85000E-001	3.88956E-004	6	.....h....a	-327.68
	96	1.29333	-1.16156E-001	-1.99428E-001	-1.57792E-001	7.52334E-007	-7.03884E-007	1.45622E-006	-1.83000E-001	3.95206E-004	6	.....h....a	-327.68
	97	1.30667	-1.14148E-001	-1.97468E-001	-1.55808E-001	7.55822E-007	-7.05914E-007	1.46174E-006	-1.81000E-001	3.82706E-004	6	.....h....a	-327.68
	98	1.32	-1.12126E-001	-1.95428E-001	-1.53777E-001	7.58890E-007	-7.06119E-007	1.46501E-006	-1.79000E-001	3.81456E-004	6	.....h....a	-327.68
	99	1.33333	-1.10170E-001	-1.93442E-001	-1.51806E-001	7.61855E-007	-7.07132E-007	1.46899E-006	-1.77000E-001	3.78956E-004	6	.....h....a	-327.68
	100	1.34667	-1.08130E-001	-1.91430E-001	-1.49780E-001	7.64200E-007	-7.07915E-007	1.47211E-006	-1.75000E-001	3.91456E-004	6	.....h....a	-327.68
