EXPLAIN
TAG	SQUARE_WAVE
TITLE	LABEL	Square Wave Voltammetry	Test Identifier
DATE	LABEL	8/10/2020	Date
TIME	LABEL	14:36:56	Time
NOTES	NOTES	1	Notes...
	 STD1 0.1 fg/mL 08102
PSTAT	PSTAT	REF600-24079	Potentiostat
VINIT	QUANT	-3.50000E-001	Initial E (V)
VFINAL	QUANT	-1.50000E-001	Final E (V)
STEPSIZE	QUANT	2.00000E+000	Step Size (mV)
TIMERRES	QUANT	3.33340E-005	&Timer Resolution
FREQUENCY	QUANT	1.00000E+001	Frequency (Hz)
PULSESIZE	QUANT	2.50000E+001	Pulse Size E (mV)
PULSEON	QUANT	1.00000E-001	Pulse &Time (s)
NOISEREJECT	TOGGLE	F	Noise Rejection
AREA	QUANT	2.00000E-002	Sample Area (cm^2)
IMODE	SELECTOR	1	I/E Range Mode
IRANGE	QUANT	1.00000E-003	Max Current (mA)
EQDELAY	IQUANT	10	Equil. Time (s)
IRCOMP	SELECTOR	0	IRComp
PFCOR	QUANT	5.00000E+001	PF Corr. (ohm)
CYCLES	IQUANT	101	C&ycles (#)
ELECTRODETYPE	SELECTOR	0	Electrode Type
STRIPPING	TOGGLE	F	Used for Stripping
POLARITY	TOGGLE	F	Signal Polarity
LINEFREQ	IQUANT	60	Line Frequency (Hz)
INTPERIOD	QUANT	3.3334E-005	Integration Period (s)
SEQUENCER	TOGGLE	TRUE	Run as Sequence
PSTATMODEL	IQUANT	4	Pstat Model
PSTATSECTION	LABEL	REF600-24079	Pstat Section
PSTATSERIALNO	LABEL	24079	Pstat Serial Number
CTRLMODE	IQUANT	1	Control Mode
ELECTROMETER	IQUANT	0	RE=0 or CS=1
IESTAB	IQUANT	2	I/E Stability
CASPEED	IQUANT	6	Control Amp Speed
CONVENTION	IQUANT	1	Current Convention
ICHRANGE	IQUANT	2	Ich Range
ICHRANGEMODE	TOGGLE	F	Ich Auto Range
ICHOFFSETENABLE	TOGGLE	F	Ich Offset Enable
ICHOFFSET	QUANT	0	Ich Offset (V)
ICHFILTER	IQUANT	2	Ich Filter
VCHRANGE	IQUANT	2	Vch Range
VCHRANGEMODE	TOGGLE	F	Vch Auto Range
VCHOFFSETENABLE	TOGGLE	F	Vch Offset Enable
VCHOFFSET	QUANT	0	Vch Offset (V)
VCHFILTER	IQUANT	2	Vch Filter
ACHRANGE	IQUANT	2	Ach Range
ACHOFFSETENABLE	TOGGLE	F	Ach Offset Enable
ACHOFFSET	QUANT	0	Ach Offset (V)
ACHFILTER	IQUANT	1	Ach Filter
IERANGELOWERLIMIT	IQUANT	1	I/E Range Lower Limit
IERANGEMODE	TOGGLE	F	I/E AutoRange
IERANGE	IQUANT	6	I/E Range
POSFEEDENABLE	TOGGLE	F	Positive Feedback IR Comp
POSFEEDRESISTANCE	QUANT	0	Positive Feedback Resistance (ohm)
ACHSELECT	IQUANT	0	Ach Select
SENSECABLEID	IQUANT	13	Sense Cable ID
PWRCABLEID	IQUANT	13	Power Cable ID
DCCALDATE	LABEL	6/30/2020	DC Calibration Date
ACCALDATE	LABEL	6/30/2020	AC Calibration Date
THERMOSELECT	IQUANT	1	Thermo Select
FRAMEWORKVERSION	LABEL	7.8.2	Framework Version
INSTRUMENTVERSION	LABEL	4.40	Instrument Version
CURVE	TABLE	101
	Pt	T	Vfwd	Vrev	Vstep	Ifwd	Irev	Idif	Sig	Ach	IERange	Over	Temp
	#	s	V	V	V	A	A	A	V	V	#	bits	deg C
	0	0.1	-3.25038E-001	-3.74982E-001	-3.50010E-001	-5.33492E-008	-1.10494E-007	5.71453E-008	-3.75000E-001	4.24373E-004	6	..........a	-327.68
	1	0.2	-3.22982E-001	-3.73033E-001	-3.48007E-001	-3.99985E-008	-1.03808E-007	6.38098E-008	-3.73000E-001	4.31206E-004	6	..........a	-327.68
	2	0.3	-3.21048E-001	-3.70984E-001	-3.46016E-001	-3.65801E-008	-1.00284E-007	6.37041E-008	-3.71000E-001	4.29039E-004	6	..........a	-327.68
	3	0.4	-3.19052E-001	-3.69125E-001	-3.44088E-001	-3.44381E-008	-9.77592E-008	6.33211E-008	-3.69000E-001	4.23539E-004	6	..........a	-327.68
	4	0.5	-3.17120E-001	-3.67009E-001	-3.42065E-001	-3.27216E-008	-9.49992E-008	6.22776E-008	-3.67000E-001	4.23873E-004	6	..........a	-327.68
	5	0.6	-3.14965E-001	-3.65103E-001	-3.40034E-001	-3.10017E-008	-9.28676E-008	6.18659E-008	-3.65000E-001	4.28039E-004	6	..........a	-327.68
	6	0.7	-3.13093E-001	-3.62941E-001	-3.38017E-001	-2.96345E-008	-9.07593E-008	6.11248E-008	-3.63000E-001	4.26373E-004	6	..........a	-327.68
	7	0.8	-3.10989E-001	-3.61103E-001	-3.36046E-001	-2.83894E-008	-8.88527E-008	6.04634E-008	-3.61000E-001	4.28039E-004	6	..........a	-327.68
	8	0.9	-3.09082E-001	-3.59025E-001	-3.34053E-001	-2.72199E-008	-8.65508E-008	5.93309E-008	-3.59000E-001	4.24873E-004	6	..........a	-327.68
	9	1	-3.06978E-001	-3.57112E-001	-3.32045E-001	-2.58147E-008	-8.51939E-008	5.93792E-008	-3.57000E-001	4.24206E-004	6	..........a	-327.68
	10	1.1	-3.05113E-001	-3.54973E-001	-3.30043E-001	-2.47079E-008	-8.31997E-008	5.84918E-008	-3.55000E-001	4.34873E-004	6	..........a	-327.68
	11	1.2	-3.03032E-001	-3.53082E-001	-3.28057E-001	-2.33524E-008	-8.16861E-008	5.83338E-008	-3.53000E-001	4.27039E-004	6	..........a	-327.68
	12	1.3	-3.01090E-001	-3.50972E-001	-3.26031E-001	-2.23806E-008	-7.98976E-008	5.75170E-008	-3.51000E-001	4.29206E-004	6	..........a	-327.68
	13	1.4	-2.98994E-001	-3.49034E-001	-3.24014E-001	-2.13965E-008	-7.85554E-008	5.71589E-008	-3.49000E-001	4.27539E-004	6	..........a	-327.68
	14	1.5	-2.97074E-001	-3.46994E-001	-3.22034E-001	-2.02330E-008	-7.68139E-008	5.65809E-008	-3.47000E-001	4.30039E-004	6	..........a	-327.68
	15	1.6	-2.94990E-001	-3.45135E-001	-3.20062E-001	-1.91712E-008	-7.55084E-008	5.63372E-008	-3.45000E-001	4.29873E-004	6	..........a	-327.68
	16	1.7	-2.93080E-001	-3.42978E-001	-3.18029E-001	-1.81874E-008	-7.41759E-008	5.59885E-008	-3.43000E-001	4.29206E-004	6	..........a	-327.68
	17	1.8	-2.90927E-001	-3.41048E-001	-3.15987E-001	-1.71749E-008	-7.29127E-008	5.57378E-008	-3.41000E-001	4.27039E-004	6	..........a	-327.68
	18	1.9	-2.89108E-001	-3.38971E-001	-3.14039E-001	-1.59794E-008	-7.16252E-008	5.56457E-008	-3.39000E-001	4.30206E-004	6	..........a	-327.68
	19	2	-2.86981E-001	-3.37101E-001	-3.12041E-001	-1.50303E-008	-7.03190E-008	5.52887E-008	-3.37000E-001	4.26206E-004	6	..........a	-327.68
	20	2.1	-2.85110E-001	-3.34990E-001	-3.10050E-001	-1.40092E-008	-6.92489E-008	5.52397E-008	-3.35000E-001	4.28206E-004	6	..........a	-327.68
	21	2.2	-2.82967E-001	-3.33092E-001	-3.08029E-001	-1.28507E-008	-6.79697E-008	5.51190E-008	-3.33000E-001	4.30873E-004	6	..........a	-327.68
	22	2.3	-2.81124E-001	-3.30964E-001	-3.06044E-001	-1.19226E-008	-6.70523E-008	5.51297E-008	-3.31000E-001	4.28039E-004	6	..........a	-327.68
	23	2.4	-2.79021E-001	-3.29088E-001	-3.04055E-001	-1.09171E-008	-6.60752E-008	5.51580E-008	-3.29000E-001	4.25373E-004	6	..........a	-327.68
	24	2.5	-2.77093E-001	-3.26982E-001	-3.02037E-001	-9.85400E-009	-6.49343E-008	5.50803E-008	-3.27000E-001	4.32206E-004	6	..........a	-327.68
	25	2.6	-2.74975E-001	-3.25020E-001	-2.99998E-001	-8.83521E-009	-6.39346E-008	5.50993E-008	-3.25000E-001	4.33539E-004	6	..........a	-327.68
	26	2.7	-2.73068E-001	-3.22980E-001	-2.98024E-001	-7.93476E-009	-6.32181E-008	5.52834E-008	-3.23000E-001	4.26539E-004	6	..........a	-327.68
	27	2.8	-2.71005E-001	-3.21020E-001	-2.96013E-001	-6.82829E-009	-6.23584E-008	5.55301E-008	-3.21000E-001	4.30373E-004	6	..........a	-327.68
	28	2.9	-2.69031E-001	-3.18942E-001	-2.93986E-001	-5.81182E-009	-6.15686E-008	5.57568E-008	-3.19000E-001	4.24873E-004	6	..........a	-327.68
	29	3	-2.66918E-001	-3.17089E-001	-2.92004E-001	-4.80703E-009	-6.07205E-008	5.59134E-008	-3.17000E-001	4.28539E-004	6	..........a	-327.68
	30	3.1	-2.65126E-001	-3.14976E-001	-2.90051E-001	-3.66422E-009	-5.99684E-008	5.63042E-008	-3.15000E-001	4.26206E-004	6	..........a	-327.68
	31	3.2	-2.62995E-001	-3.13067E-001	-2.88031E-001	-2.83344E-009	-5.93723E-008	5.65389E-008	-3.13000E-001	4.32539E-004	6	..........a	-327.68
	32	3.3	-2.61110E-001	-3.10956E-001	-2.86033E-001	-1.78031E-009	-5.90143E-008	5.72340E-008	-3.11000E-001	4.31039E-004	6	..........a	-327.68
	33	3.4	-2.58968E-001	-3.09045E-001	-2.84007E-001	-9.51204E-010	-5.84879E-008	5.75367E-008	-3.09000E-001	4.31206E-004	6	..........a	-327.68
	34	3.5	-2.57108E-001	-3.06985E-001	-2.82046E-001	-4.77561E-011	-5.77491E-008	5.77013E-008	-3.07000E-001	4.32373E-004	6	..........a	-327.68
	35	3.6	-2.55044E-001	-3.05081E-001	-2.80063E-001	8.81029E-010	-5.73297E-008	5.82107E-008	-3.05000E-001	4.28539E-004	6	..........a	-327.68
	36	3.7	-2.53118E-001	-3.02989E-001	-2.78053E-001	1.51111E-009	-5.68870E-008	5.83981E-008	-3.03000E-001	4.30539E-004	6	..........a	-327.68
	37	3.8	-2.51006E-001	-3.01054E-001	-2.76030E-001	2.36988E-009	-5.63739E-008	5.87438E-008	-3.01000E-001	4.31539E-004	6	..........a	-327.68
	38	3.9	-2.49103E-001	-2.98990E-001	-2.74046E-001	3.04664E-009	-5.60235E-008	5.90702E-008	-2.99000E-001	4.29539E-004	6	..........a	-327.68
	39	4	-2.47027E-001	-2.97030E-001	-2.72029E-001	3.45269E-009	-5.56352E-008	5.90879E-008	-2.97000E-001	4.28206E-004	6	..........a	-327.68
	40	4.1	-2.45077E-001	-2.94976E-001	-2.70026E-001	4.09477E-009	-5.53731E-008	5.94679E-008	-2.95000E-001	4.28373E-004	6	..........a	-327.68
	41	4.2	-2.42986E-001	-2.93112E-001	-2.68049E-001	4.72852E-009	-5.49837E-008	5.97123E-008	-2.93000E-001	4.30039E-004	6	..........a	-327.68
	42	4.3	-2.41128E-001	-2.90970E-001	-2.66049E-001	5.11157E-009	-5.45627E-008	5.96743E-008	-2.91000E-001	4.28873E-004	6	..........a	-327.68
	43	4.4	-2.39042E-001	-2.89069E-001	-2.64055E-001	5.53862E-009	-5.40193E-008	5.95579E-008	-2.89000E-001	4.29873E-004	6	..........a	-327.68
	44	4.5	-2.37114E-001	-2.86956E-001	-2.62035E-001	5.97901E-009	-5.36369E-008	5.96159E-008	-2.87000E-001	4.26206E-004	6	..........a	-327.68
	45	4.6	-2.34954E-001	-2.85091E-001	-2.60023E-001	6.11269E-009	-5.32105E-008	5.93232E-008	-2.85000E-001	4.28873E-004	6	..........a	-327.68
	46	4.7	-2.33117E-001	-2.82987E-001	-2.58052E-001	6.66076E-009	-5.28631E-008	5.95239E-008	-2.83000E-001	4.28873E-004	6	..........a	-327.68
	47	4.8	-2.31044E-001	-2.81120E-001	-2.56082E-001	6.63776E-009	-5.22787E-008	5.89165E-008	-2.81000E-001	4.30206E-004	6	..........a	-327.68
	48	4.9	-2.29122E-001	-2.79004E-001	-2.54063E-001	6.60109E-009	-5.18703E-008	5.84714E-008	-2.79000E-001	4.27039E-004	6	..........a	-327.68
	49	5	-2.26969E-001	-2.77069E-001	-2.52019E-001	6.76978E-009	-5.12589E-008	5.80287E-008	-2.77000E-001	4.28706E-004	6	..........a	-327.68
	50	5.1	-2.25107E-001	-2.75025E-001	-2.50066E-001	7.14716E-009	-5.06995E-008	5.78467E-008	-2.75000E-001	4.22373E-004	6	..........a	-327.68
	51	5.2	-2.23032E-001	-2.73073E-001	-2.48053E-001	7.02614E-009	-5.01445E-008	5.71706E-008	-2.73000E-001	4.28873E-004	6	..........a	-327.68
	52	5.3	-2.21098E-001	-2.71009E-001	-2.46054E-001	7.14283E-009	-4.93374E-008	5.64802E-008	-2.71000E-001	4.27539E-004	6	..........a	-327.68
	53	5.4	-2.19006E-001	-2.69032E-001	-2.44019E-001	7.33185E-009	-4.85369E-008	5.58688E-008	-2.69000E-001	4.25706E-004	6	..........a	-327.68
	54	5.5	-2.17126E-001	-2.66960E-001	-2.42043E-001	7.24417E-009	-4.80509E-008	5.52950E-008	-2.67000E-001	4.29039E-004	6	..........a	-327.68
	55	5.6	-2.15028E-001	-2.65126E-001	-2.40077E-001	7.22717E-009	-4.71251E-008	5.43522E-008	-2.65000E-001	4.26539E-004	6	..........a	-327.68
	56	5.7	-2.13105E-001	-2.62970E-001	-2.38037E-001	7.28018E-009	-4.63106E-008	5.35908E-008	-2.63000E-001	4.35039E-004	6	..........a	-327.68
	57	5.8	-2.10964E-001	-2.61098E-001	-2.36031E-001	7.57321E-009	-4.53592E-008	5.29324E-008	-2.61000E-001	4.29206E-004	6	..........a	-327.68
	58	5.9	-2.09114E-001	-2.59001E-001	-2.34057E-001	7.56588E-009	-4.46038E-008	5.21696E-008	-2.59000E-001	4.25373E-004	6	..........a	-327.68
	59	6	-2.07054E-001	-2.57100E-001	-2.32077E-001	7.48820E-009	-4.36423E-008	5.11305E-008	-2.57000E-001	4.31206E-004	6	..........a	-327.68
	60	6.1	-2.05111E-001	-2.55020E-001	-2.30066E-001	7.55421E-009	-4.28449E-008	5.03991E-008	-2.55000E-001	4.28373E-004	6	..........a	-327.68
	61	6.2	-2.02963E-001	-2.53102E-001	-2.28033E-001	7.72890E-009	-4.19961E-008	4.97250E-008	-2.53000E-001	4.29039E-004	6	..........a	-327.68
	62	6.3	-2.01124E-001	-2.50989E-001	-2.26056E-001	7.72690E-009	-4.13363E-008	4.90632E-008	-2.51000E-001	4.29039E-004	6	..........a	-327.68
	63	6.4	-1.99067E-001	-2.49085E-001	-2.24076E-001	7.80424E-009	-4.05096E-008	4.83138E-008	-2.49000E-001	4.31039E-004	6	..........a	-327.68
	64	6.5	-1.97114E-001	-2.47015E-001	-2.22065E-001	7.93893E-009	-3.96808E-008	4.76197E-008	-2.47000E-001	4.33206E-004	6	..........a	-327.68
	65	6.6	-1.95003E-001	-2.45053E-001	-2.20028E-001	7.90459E-009	-3.88464E-008	4.67509E-008	-2.45000E-001	4.28539E-004	6	..........a	-327.68
	66	6.7	-1.93109E-001	-2.42963E-001	-2.18036E-001	8.07794E-009	-3.81339E-008	4.62119E-008	-2.43000E-001	4.27373E-004	6	..........a	-327.68
	67	6.8	-1.91122E-001	-2.41125E-001	-2.16124E-001	8.37698E-009	-3.72278E-008	4.56048E-008	-2.41000E-001	4.25206E-004	6	..........a	-327.68
	68	6.9	-1.89069E-001	-2.39062E-001	-2.14066E-001	8.45066E-009	-3.65317E-008	4.49824E-008	-2.39000E-001	4.24873E-004	6	..........a	-327.68
	69	7	-1.86953E-001	-2.37090E-001	-2.12021E-001	8.50867E-009	-3.58910E-008	4.43996E-008	-2.37000E-001	4.28706E-004	6	..........a	-327.68
	70	7.1	-1.85124E-001	-2.34958E-001	-2.10041E-001	8.53967E-009	-3.51306E-008	4.36702E-008	-2.35000E-001	4.27873E-004	6	..........a	-327.68
	71	7.2	-1.83065E-001	-2.33111E-001	-2.08088E-001	8.98439E-009	-3.43138E-008	4.32982E-008	-2.33000E-001	4.28706E-004	6	..........a	-327.68
	72	7.3	-1.81117E-001	-2.31023E-001	-2.06070E-001	9.14575E-009	-3.38464E-008	4.29921E-008	-2.31000E-001	4.24039E-004	6	..........a	-327.68
	73	7.4	-1.78958E-001	-2.29120E-001	-2.04039E-001	9.16175E-009	-3.34340E-008	4.25958E-008	-2.29000E-001	4.35039E-004	6	..........a	-327.68
	74	7.5	-1.77124E-001	-2.26974E-001	-2.02049E-001	9.32544E-009	-3.28373E-008	4.21627E-008	-2.27000E-001	4.26873E-004	6	..........a	-327.68
	75	7.6	-1.75070E-001	-2.25105E-001	-2.00088E-001	9.44979E-009	-3.20552E-008	4.15049E-008	-2.25000E-001	4.25039E-004	6	..........a	-327.68
	76	7.7	-1.73121E-001	-2.22996E-001	-1.98059E-001	9.64081E-009	-3.17381E-008	4.13789E-008	-2.23000E-001	4.25373E-004	6	..........a	-327.68
	77	7.8	-1.70978E-001	-2.21059E-001	-1.96018E-001	9.78850E-009	-3.11844E-008	4.09729E-008	-2.21000E-001	4.28539E-004	6	..........a	-327.68
	78	7.9	-1.69109E-001	-2.18999E-001	-1.94054E-001	9.93118E-009	-3.06600E-008	4.05912E-008	-2.19000E-001	4.28373E-004	6	..........a	-327.68
	79	8	-1.67052E-001	-2.17128E-001	-1.92090E-001	1.02726E-008	-3.02019E-008	4.04745E-008	-2.17000E-001	4.22706E-004	6	..........a	-327.68
	80	8.1	-1.65080E-001	-2.15022E-001	-1.90051E-001	1.02502E-008	-2.97892E-008	4.00394E-008	-2.15000E-001	4.24039E-004	6	..........a	-327.68
	81	8.2	-1.62942E-001	-2.13054E-001	-1.87998E-001	1.06156E-008	-2.92415E-008	3.98571E-008	-2.13000E-001	4.27039E-004	6	..........a	-327.68
	82	8.3	-1.61120E-001	-2.10977E-001	-1.86048E-001	1.07356E-008	-2.88731E-008	3.96087E-008	-2.11000E-001	4.33706E-004	6	..........a	-327.68
	83	8.4	-1.59051E-001	-2.09095E-001	-1.84073E-001	1.09456E-008	-2.84704E-008	3.94160E-008	-2.09000E-001	4.25873E-004	6	..........a	-327.68
	84	8.5	-1.57121E-001	-2.07034E-001	-1.82078E-001	1.10133E-008	-2.81883E-008	3.92017E-008	-2.07000E-001	4.27206E-004	6	..........a	-327.68
	85	8.6	-1.54976E-001	-2.05104E-001	-1.80040E-001	1.12177E-008	-2.78723E-008	3.90900E-008	-2.05000E-001	4.32539E-004	6	..........a	-327.68
	86	8.7	-1.53128E-001	-2.02978E-001	-1.78053E-001	1.15334E-008	-2.74612E-008	3.89946E-008	-2.03000E-001	4.33539E-004	6	..........a	-327.68
	87	8.8	-1.51070E-001	-2.01117E-001	-1.76093E-001	1.16271E-008	-2.71842E-008	3.88113E-008	-2.01000E-001	4.31873E-004	6	..........a	-327.68
	88	8.9	-1.49110E-001	-1.99041E-001	-1.74076E-001	1.18054E-008	-2.67668E-008	3.85722E-008	-1.99000E-001	4.36706E-004	6	..........a	-327.68
	89	9	-1.46996E-001	-1.97087E-001	-1.72041E-001	1.21025E-008	-2.64855E-008	3.85879E-008	-1.97000E-001	4.25873E-004	6	..........a	-327.68
	90	9.1	-1.45109E-001	-1.95018E-001	-1.70064E-001	1.21431E-008	-2.60517E-008	3.81949E-008	-1.95000E-001	4.28373E-004	6	..........a	-327.68
	91	9.2	-1.43066E-001	-1.93068E-001	-1.68067E-001	1.23778E-008	-2.56280E-008	3.80058E-008	-1.93000E-001	4.30373E-004	6	..........a	-327.68
	92	9.3	-1.41107E-001	-1.91055E-001	-1.66081E-001	1.26625E-008	-2.54210E-008	3.80835E-008	-1.91000E-001	4.19873E-004	6	..........a	-327.68
	93	9.4	-1.38934E-001	-1.89127E-001	-1.64030E-001	1.24975E-008	-2.53570E-008	3.78545E-008	-1.89000E-001	4.33206E-004	6	..........a	-327.68
	94	9.5	-1.37129E-001	-1.86978E-001	-1.62053E-001	1.28816E-008	-2.50473E-008	3.79288E-008	-1.87000E-001	4.27039E-004	6	..........a	-327.68
	95	9.6	-1.35029E-001	-1.85107E-001	-1.60068E-001	1.29992E-008	-2.46749E-008	3.76741E-008	-1.85000E-001	4.27873E-004	6	..........a	-327.68
	96	9.7	-1.33095E-001	-1.83017E-001	-1.58056E-001	1.31983E-008	-2.43478E-008	3.75461E-008	-1.83000E-001	4.27539E-004	6	..........a	-327.68
	97	9.8	-1.30960E-001	-1.81114E-001	-1.56037E-001	1.33690E-008	-2.41562E-008	3.75251E-008	-1.81000E-001	4.31539E-004	6	..........a	-327.68
	98	9.9	-1.29115E-001	-1.78980E-001	-1.54048E-001	1.33713E-008	-2.38888E-008	3.72601E-008	-1.79000E-001	4.32873E-004	6	..........a	-327.68
	99	10	-1.27090E-001	-1.77123E-001	-1.52106E-001	1.37907E-008	-2.37594E-008	3.75501E-008	-1.77000E-001	4.31206E-004	6	..........a	-327.68
	100	10.1	-1.25118E-001	-1.75061E-001	-1.50089E-001	1.38820E-008	-2.36168E-008	3.74988E-008	-1.75000E-001	4.28873E-004	6	..........a	-327.68
