EXPLAIN
TAG	SQUARE_WAVE
TITLE	LABEL	Square Wave Voltammetry	Test Identifier
DATE	LABEL	8/10/2020	Date
TIME	LABEL	17:33:40	Time
NOTES	NOTES	1	Notes...
	
PSTAT	PSTAT	REF600-24079	Potentiostat
VINIT	QUANT	-3.50000E-001	Initial E (V)
VFINAL	QUANT	-1.50000E-001	Final E (V)
STEPSIZE	QUANT	2.00000E+000	Step Size (mV)
TIMERRES	QUANT	3.33340E-005	&Timer Resolution
FREQUENCY	QUANT	2.50000E+001	Frequency (Hz)
PULSESIZE	QUANT	2.50000E+001	Pulse Size E (mV)
PULSEON	QUANT	4.00000E-002	Pulse &Time (s)
NOISEREJECT	TOGGLE	F	Noise Rejection
AREA	QUANT	2.00000E-002	Sample Area (cm^2)
IMODE	SELECTOR	1	I/E Range Mode
IRANGE	QUANT	1.00000E-003	Max Current (mA)
EQDELAY	IQUANT	10	Equil. Time (s)
IRCOMP	SELECTOR	0	IRComp
PFCOR	QUANT	5.00000E+001	PF Corr. (ohm)
CYCLES	IQUANT	101	C&ycles (#)
ELECTRODETYPE	SELECTOR	0	Electrode Type
STRIPPING	TOGGLE	F	Used for Stripping
POLARITY	TOGGLE	F	Signal Polarity
LINEFREQ	IQUANT	60	Line Frequency (Hz)
INTPERIOD	QUANT	3.3334E-005	Integration Period (s)
SEQUENCER	TOGGLE	TRUE	Run as Sequence
PSTATMODEL	IQUANT	4	Pstat Model
PSTATSECTION	LABEL	REF600-24079	Pstat Section
PSTATSERIALNO	LABEL	24079	Pstat Serial Number
CTRLMODE	IQUANT	1	Control Mode
ELECTROMETER	IQUANT	0	RE=0 or CS=1
IESTAB	IQUANT	2	I/E Stability
CASPEED	IQUANT	6	Control Amp Speed
CONVENTION	IQUANT	1	Current Convention
ICHRANGE	IQUANT	2	Ich Range
ICHRANGEMODE	TOGGLE	F	Ich Auto Range
ICHOFFSETENABLE	TOGGLE	F	Ich Offset Enable
ICHOFFSET	QUANT	0	Ich Offset (V)
ICHFILTER	IQUANT	2	Ich Filter
VCHRANGE	IQUANT	2	Vch Range
VCHRANGEMODE	TOGGLE	F	Vch Auto Range
VCHOFFSETENABLE	TOGGLE	F	Vch Offset Enable
VCHOFFSET	QUANT	0	Vch Offset (V)
VCHFILTER	IQUANT	2	Vch Filter
ACHRANGE	IQUANT	2	Ach Range
ACHOFFSETENABLE	TOGGLE	F	Ach Offset Enable
ACHOFFSET	QUANT	0	Ach Offset (V)
ACHFILTER	IQUANT	1	Ach Filter
IERANGELOWERLIMIT	IQUANT	1	I/E Range Lower Limit
IERANGEMODE	TOGGLE	F	I/E AutoRange
IERANGE	IQUANT	6	I/E Range
POSFEEDENABLE	TOGGLE	F	Positive Feedback IR Comp
POSFEEDRESISTANCE	QUANT	0	Positive Feedback Resistance (ohm)
ACHSELECT	IQUANT	0	Ach Select
SENSECABLEID	IQUANT	13	Sense Cable ID
PWRCABLEID	IQUANT	13	Power Cable ID
DCCALDATE	LABEL	6/30/2020	DC Calibration Date
ACCALDATE	LABEL	6/30/2020	AC Calibration Date
THERMOSELECT	IQUANT	1	Thermo Select
FRAMEWORKVERSION	LABEL	7.8.2	Framework Version
INSTRUMENTVERSION	LABEL	4.40	Instrument Version
CURVE	TABLE	101
	Pt	T	Vfwd	Vrev	Vstep	Ifwd	Irev	Idif	Sig	Ach	IERange	Over	Temp
	#	s	V	V	V	A	A	A	V	V	#	bits	deg C
	0	0.04	-3.24977E-001	-3.75598E-001	-3.50288E-001	-1.26791E-007	-3.40934E-007	2.14143E-007	-3.75000E-001	4.13123E-004	6	..........a	-327.68
	1	0.08	-3.22229E-001	-3.73626E-001	-3.47927E-001	-3.08125E-008	-3.25541E-007	2.94728E-007	-3.73000E-001	4.09789E-004	6	..........a	-327.68
	2	0.12	-3.20243E-001	-3.71591E-001	-3.45917E-001	-2.26356E-008	-3.17699E-007	2.95063E-007	-3.71000E-001	4.08539E-004	6	..........a	-327.68
	3	0.16	-3.18127E-001	-3.69504E-001	-3.43816E-001	-1.97094E-008	-3.11988E-007	2.92279E-007	-3.69000E-001	3.88123E-004	6	..........a	-327.68
	4	0.2	-3.16278E-001	-3.67572E-001	-3.41925E-001	-1.52372E-008	-3.05188E-007	2.89951E-007	-3.67000E-001	3.98956E-004	6	..........a	-327.68
	5	0.24	-3.14192E-001	-3.65574E-001	-3.39883E-001	-1.23668E-008	-3.01299E-007	2.88932E-007	-3.65000E-001	3.96456E-004	6	..........a	-327.68
	6	0.28	-3.12231E-001	-3.63583E-001	-3.37907E-001	-9.95985E-009	-2.95346E-007	2.85386E-007	-3.63000E-001	3.92289E-004	6	..........a	-327.68
	7	0.32	-3.10172E-001	-3.61571E-001	-3.35872E-001	-5.69264E-009	-2.90881E-007	2.85188E-007	-3.61000E-001	3.99789E-004	6	..........a	-327.68
	8	0.36	-3.08247E-001	-3.59577E-001	-3.33912E-001	-4.21412E-009	-2.87006E-007	2.82792E-007	-3.59000E-001	3.96039E-004	6	..........a	-327.68
	9	0.4	-3.06247E-001	-3.57648E-001	-3.31947E-001	-1.13373E-009	-2.80969E-007	2.79836E-007	-3.57000E-001	3.96039E-004	6	..........a	-327.68
	10	0.44	-3.04251E-001	-3.55601E-001	-3.29926E-001	9.15700E-010	-2.77968E-007	2.78884E-007	-3.55000E-001	4.01873E-004	6	..........a	-327.68
	11	0.48	-3.02202E-001	-3.53597E-001	-3.27900E-001	3.22183E-009	-2.73162E-007	2.76384E-007	-3.53000E-001	3.95206E-004	6	..........a	-327.68
	12	0.52	-3.00250E-001	-3.51594E-001	-3.25922E-001	7.12316E-009	-2.68503E-007	2.75626E-007	-3.51000E-001	4.06873E-004	6	..........a	-327.68
	13	0.56	-2.98225E-001	-3.49597E-001	-3.23911E-001	8.53000E-009	-2.65493E-007	2.74023E-007	-3.49000E-001	3.94373E-004	6	..........a	-327.68
	14	0.6	-2.96243E-001	-3.47592E-001	-3.21918E-001	1.12262E-008	-2.60781E-007	2.72007E-007	-3.47000E-001	4.01456E-004	6	..........a	-327.68
	15	0.64	-2.94176E-001	-3.45571E-001	-3.19873E-001	1.32064E-008	-2.58042E-007	2.71249E-007	-3.45000E-001	3.99789E-004	6	..........a	-327.68
	16	0.68	-2.92296E-001	-3.43573E-001	-3.17935E-001	1.48825E-008	-2.53609E-007	2.68492E-007	-3.43000E-001	4.09373E-004	6	..........a	-327.68
	17	0.72	-2.90223E-001	-3.41649E-001	-3.15936E-001	1.86263E-008	-2.50041E-007	2.68667E-007	-3.41000E-001	4.03539E-004	6	..........a	-327.68
	18	0.76	-2.88232E-001	-3.39578E-001	-3.13905E-001	1.93272E-008	-2.46888E-007	2.66216E-007	-3.39000E-001	4.05206E-004	6	..........a	-327.68
	19	0.8	-2.86170E-001	-3.37572E-001	-3.11871E-001	2.27935E-008	-2.42065E-007	2.64859E-007	-3.37000E-001	4.04373E-004	6	..........a	-327.68
	20	0.84	-2.84247E-001	-3.35573E-001	-3.09910E-001	2.46221E-008	-2.40011E-007	2.64633E-007	-3.35000E-001	4.09373E-004	6	..........a	-327.68
	21	0.88	-2.82212E-001	-3.33616E-001	-3.07914E-001	2.57322E-008	-2.35672E-007	2.61404E-007	-3.33000E-001	4.00623E-004	6	..........a	-327.68
	22	0.92	-2.80253E-001	-3.31611E-001	-3.05932E-001	2.92085E-008	-2.33018E-007	2.62227E-007	-3.31000E-001	4.12289E-004	6	..........a	-327.68
	23	0.96	-2.78189E-001	-3.29592E-001	-3.03891E-001	3.03970E-008	-2.30661E-007	2.61058E-007	-3.29000E-001	3.98539E-004	6	..........a	-327.68
	24	1	-2.76251E-001	-3.27609E-001	-3.01930E-001	3.26981E-008	-2.25915E-007	2.58613E-007	-3.27000E-001	3.88956E-004	6	..........a	-327.68
	25	1.04	-2.74237E-001	-3.25628E-001	-2.99932E-001	3.51967E-008	-2.24549E-007	2.59746E-007	-3.25000E-001	4.01039E-004	6	..........a	-327.68
	26	1.08	-2.72260E-001	-3.23594E-001	-2.97927E-001	3.58151E-008	-2.20326E-007	2.56141E-007	-3.23000E-001	3.96456E-004	6	..........a	-327.68
	27	1.12	-2.70227E-001	-3.21597E-001	-2.95912E-001	3.98298E-008	-2.17999E-007	2.57829E-007	-3.21000E-001	3.90206E-004	6	..........a	-327.68
	28	1.16	-2.68303E-001	-3.19578E-001	-2.93940E-001	4.06049E-008	-2.15680E-007	2.56285E-007	-3.19000E-001	3.95206E-004	6	..........a	-327.68
	29	1.2	-2.66243E-001	-3.17649E-001	-2.91946E-001	4.28252E-008	-2.11261E-007	2.54087E-007	-3.17000E-001	4.04373E-004	6	..........a	-327.68
	30	1.24	-2.64247E-001	-3.15588E-001	-2.89918E-001	4.49355E-008	-2.09993E-007	2.54928E-007	-3.15000E-001	3.88539E-004	6	..........a	-327.68
	31	1.28	-2.62177E-001	-3.13571E-001	-2.87874E-001	4.62890E-008	-2.06408E-007	2.52697E-007	-3.13000E-001	3.96873E-004	6	..........a	-327.68
	32	1.32	-2.60251E-001	-3.11571E-001	-2.85911E-001	4.95586E-008	-2.04645E-007	2.54204E-007	-3.11000E-001	3.96456E-004	6	..........a	-327.68
	33	1.36	-2.58236E-001	-3.09613E-001	-2.83924E-001	4.99661E-008	-2.02473E-007	2.52439E-007	-3.09000E-001	3.85623E-004	6	..........a	-327.68
	34	1.4	-2.56244E-001	-3.07591E-001	-2.81917E-001	5.21831E-008	-1.98354E-007	2.50537E-007	-3.07000E-001	4.02706E-004	6	..........a	-327.68
	35	1.44	-2.54189E-001	-3.05605E-001	-2.79897E-001	5.36041E-008	-1.97619E-007	2.51223E-007	-3.05000E-001	4.00206E-004	6	..........a	-327.68
	36	1.48	-2.52278E-001	-3.03608E-001	-2.77943E-001	5.50426E-008	-1.94540E-007	2.49583E-007	-3.03000E-001	4.12289E-004	6	..........a	-327.68
	37	1.52	-2.50240E-001	-3.01631E-001	-2.75936E-001	5.81096E-008	-1.92512E-007	2.50622E-007	-3.01000E-001	4.10206E-004	6	..........a	-327.68
	38	1.56	-2.48263E-001	-2.99613E-001	-2.73938E-001	5.84230E-008	-1.90712E-007	2.49135E-007	-2.99000E-001	3.93956E-004	6	..........a	-327.68
	39	1.6	-2.46225E-001	-2.97613E-001	-2.71919E-001	6.09967E-008	-1.87008E-007	2.48005E-007	-2.97000E-001	4.01039E-004	6	..........a	-327.68
	40	1.64	-2.44259E-001	-2.95590E-001	-2.69925E-001	6.22893E-008	-1.86548E-007	2.48837E-007	-2.95000E-001	3.96039E-004	6	..........a	-327.68
	41	1.68	-2.42234E-001	-2.93687E-001	-2.67961E-001	6.28878E-008	-1.83547E-007	2.46435E-007	-2.93000E-001	3.89373E-004	6	..........a	-327.68
	42	1.72	-2.40220E-001	-2.91596E-001	-2.65908E-001	6.54764E-008	-1.81527E-007	2.47003E-007	-2.91000E-001	4.11873E-004	6	..........a	-327.68
	43	1.76	-2.38184E-001	-2.89597E-001	-2.63891E-001	6.60365E-008	-1.80364E-007	2.46401E-007	-2.89000E-001	3.96039E-004	6	..........a	-327.68
	44	1.8	-2.36256E-001	-2.87584E-001	-2.61920E-001	6.81393E-008	-1.76764E-007	2.44903E-007	-2.87000E-001	3.93539E-004	6	..........a	-327.68
	45	1.84	-2.34225E-001	-2.85622E-001	-2.59924E-001	6.91135E-008	-1.76020E-007	2.45134E-007	-2.85000E-001	3.97289E-004	6	..........a	-327.68
	46	1.88	-2.32246E-001	-2.83597E-001	-2.57921E-001	6.97303E-008	-1.73752E-007	2.43482E-007	-2.83000E-001	4.10206E-004	6	..........a	-327.68
	47	1.92	-2.30191E-001	-2.81593E-001	-2.55892E-001	7.20489E-008	-1.71737E-007	2.43786E-007	-2.81000E-001	4.11039E-004	6	..........a	-327.68
	48	1.96	-2.28268E-001	-2.79594E-001	-2.53931E-001	7.19472E-008	-1.70800E-007	2.42748E-007	-2.79000E-001	3.88539E-004	6	..........a	-327.68
	49	2	-2.26257E-001	-2.77635E-001	-2.51946E-001	7.38816E-008	-1.67395E-007	2.41277E-007	-2.77000E-001	3.90206E-004	6	..........a	-327.68
	50	2.04	-2.24248E-001	-2.75592E-001	-2.49920E-001	7.48959E-008	-1.66623E-007	2.41519E-007	-2.75000E-001	3.79373E-004	6	..........a	-327.68
	51	2.08	-2.22213E-001	-2.73605E-001	-2.47909E-001	7.45967E-008	-1.64124E-007	2.38721E-007	-2.73000E-001	4.11873E-004	6	..........a	-327.68
	52	2.12	-2.20251E-001	-2.71587E-001	-2.45919E-001	7.70195E-008	-1.62568E-007	2.39588E-007	-2.71000E-001	3.95623E-004	6	..........a	-327.68
	53	2.16	-2.18239E-001	-2.69584E-001	-2.43912E-001	7.70829E-008	-1.61497E-007	2.38580E-007	-2.69000E-001	3.93123E-004	6	..........a	-327.68
	54	2.2	-2.16203E-001	-2.67560E-001	-2.41881E-001	7.85306E-008	-1.58227E-007	2.36758E-007	-2.67000E-001	4.01456E-004	6	..........a	-327.68
	55	2.24	-2.14145E-001	-2.65558E-001	-2.39852E-001	7.90790E-008	-1.57947E-007	2.37026E-007	-2.65000E-001	4.00206E-004	6	..........a	-327.68
	56	2.28	-2.12246E-001	-2.63586E-001	-2.37916E-001	7.90840E-008	-1.56095E-007	2.35179E-007	-2.63000E-001	3.97706E-004	6	..........a	-327.68
	57	2.32	-2.10236E-001	-2.61593E-001	-2.35914E-001	8.15235E-008	-1.53705E-007	2.35228E-007	-2.61000E-001	3.87289E-004	6	..........a	-327.68
	58	2.36	-2.08238E-001	-2.59591E-001	-2.33915E-001	8.09984E-008	-1.52921E-007	2.33920E-007	-2.59000E-001	3.82289E-004	6	..........a	-327.68
	59	2.4	-2.06187E-001	-2.57568E-001	-2.31878E-001	8.22202E-008	-1.49848E-007	2.32068E-007	-2.57000E-001	3.96039E-004	6	..........a	-327.68
	60	2.44	-2.04286E-001	-2.55598E-001	-2.29942E-001	8.33128E-008	-1.49139E-007	2.32452E-007	-2.55000E-001	3.96456E-004	6	..........a	-327.68
	61	2.48	-2.02239E-001	-2.53631E-001	-2.27935E-001	8.32512E-008	-1.47116E-007	2.30368E-007	-2.53000E-001	3.81039E-004	6	..........a	-327.68
	62	2.52	-2.00283E-001	-2.51592E-001	-2.25938E-001	8.52356E-008	-1.45490E-007	2.30725E-007	-2.51000E-001	4.06039E-004	6	..........a	-327.68
	63	2.56	-1.98215E-001	-2.49606E-001	-2.23910E-001	8.48630E-008	-1.44743E-007	2.29606E-007	-2.49000E-001	3.98539E-004	6	..........a	-327.68
	64	2.6	-1.96261E-001	-2.47594E-001	-2.21927E-001	8.58698E-008	-1.41515E-007	2.27385E-007	-2.47000E-001	3.98539E-004	6	..........a	-327.68
	65	2.64	-1.94236E-001	-2.45586E-001	-2.19911E-001	8.62791E-008	-1.41119E-007	2.27398E-007	-2.45000E-001	4.06039E-004	6	..........a	-327.68
	66	2.68	-1.92256E-001	-2.43584E-001	-2.17920E-001	8.62432E-008	-1.39380E-007	2.25624E-007	-2.43000E-001	4.07706E-004	6	..........a	-327.68
	67	2.72	-1.90134E-001	-2.41518E-001	-2.15826E-001	8.83160E-008	-1.37978E-007	2.26294E-007	-2.41000E-001	4.00206E-004	6	..........a	-327.68
	68	2.76	-1.88272E-001	-2.39571E-001	-2.13922E-001	8.82343E-008	-1.37136E-007	2.25370E-007	-2.39000E-001	3.74789E-004	6	..........a	-327.68
	69	2.8	-1.86230E-001	-2.37583E-001	-2.11907E-001	8.90736E-008	-1.34241E-007	2.23315E-007	-2.37000E-001	3.82289E-004	6	..........a	-327.68
	70	2.84	-1.84233E-001	-2.35559E-001	-2.09896E-001	8.97578E-008	-1.33840E-007	2.23598E-007	-2.35000E-001	3.91039E-004	6	..........a	-327.68
	71	2.88	-1.82165E-001	-2.33583E-001	-2.07874E-001	8.91794E-008	-1.32815E-007	2.21995E-007	-2.33000E-001	3.92706E-004	6	..........a	-327.68
	72	2.92	-1.80246E-001	-2.31580E-001	-2.05913E-001	9.15097E-008	-1.31006E-007	2.22516E-007	-2.31000E-001	3.99373E-004	6	..........a	-327.68
	73	2.96	-1.78232E-001	-2.29630E-001	-2.03931E-001	9.03963E-008	-1.29853E-007	2.20250E-007	-2.29000E-001	3.88123E-004	6	..........a	-327.68
	74	3	-1.76253E-001	-2.27598E-001	-2.01926E-001	9.19890E-008	-1.27879E-007	2.19868E-007	-2.27000E-001	3.88539E-004	6	..........a	-327.68
	75	3.04	-1.74204E-001	-2.25591E-001	-1.99897E-001	9.22398E-008	-1.27178E-007	2.19418E-007	-2.25000E-001	3.86039E-004	6	..........a	-327.68
	76	3.08	-1.72256E-001	-2.23588E-001	-1.97922E-001	9.23982E-008	-1.25351E-007	2.17749E-007	-2.23000E-001	3.81039E-004	6	..........a	-327.68
	77	3.12	-1.70233E-001	-2.21596E-001	-1.95915E-001	9.47176E-008	-1.24570E-007	2.19288E-007	-2.21000E-001	4.04789E-004	6	..........a	-327.68
	78	3.16	-1.68241E-001	-2.19587E-001	-1.93914E-001	9.37500E-008	-1.24149E-007	2.17899E-007	-2.19000E-001	3.89789E-004	6	..........a	-327.68
	79	3.2	-1.66179E-001	-2.17572E-001	-1.91875E-001	9.45918E-008	-1.21767E-007	2.16359E-007	-2.17000E-001	3.92706E-004	6	..........a	-327.68
	80	3.24	-1.64272E-001	-2.15558E-001	-1.89915E-001	9.59861E-008	-1.21650E-007	2.17636E-007	-2.15000E-001	3.96456E-004	6	..........a	-327.68
	81	3.28	-1.62223E-001	-2.13626E-001	-1.87925E-001	9.56094E-008	-1.20508E-007	2.16117E-007	-2.13000E-001	3.87289E-004	6	..........a	-327.68
	82	3.32	-1.60236E-001	-2.11572E-001	-1.85904E-001	9.74830E-008	-1.18906E-007	2.16389E-007	-2.11000E-001	3.99789E-004	6	..........a	-327.68
	83	3.36	-1.58185E-001	-2.09560E-001	-1.83872E-001	9.70613E-008	-1.18907E-007	2.15968E-007	-2.09000E-001	3.89789E-004	6	..........a	-327.68
	84	3.4	-1.56248E-001	-2.07581E-001	-1.81915E-001	9.85940E-008	-1.16210E-007	2.14804E-007	-2.07000E-001	4.02289E-004	6	..........a	-327.68
	85	3.44	-1.54238E-001	-2.05609E-001	-1.79924E-001	9.85823E-008	-1.16593E-007	2.15176E-007	-2.05000E-001	3.97706E-004	6	..........a	-327.68
	86	3.48	-1.52243E-001	-2.03606E-001	-1.77925E-001	9.89090E-008	-1.15446E-007	2.14355E-007	-2.03000E-001	3.97706E-004	6	..........a	-327.68
	87	3.52	-1.50191E-001	-2.01608E-001	-1.75900E-001	1.00828E-007	-1.13810E-007	2.14638E-007	-2.01000E-001	3.96873E-004	6	..........a	-327.68
	88	3.56	-1.48257E-001	-1.99595E-001	-1.73926E-001	1.00302E-007	-1.13786E-007	2.14088E-007	-1.99000E-001	3.87706E-004	6	..........a	-327.68
	89	3.6	-1.46238E-001	-1.97617E-001	-1.71928E-001	1.01488E-007	-1.11405E-007	2.12894E-007	-1.97000E-001	3.98539E-004	6	..........a	-327.68
	90	3.64	-1.44244E-001	-1.95600E-001	-1.69922E-001	1.02635E-007	-1.12085E-007	2.14720E-007	-1.95000E-001	3.98123E-004	6	..........a	-327.68
	91	3.68	-1.42223E-001	-1.93596E-001	-1.67910E-001	1.02508E-007	-1.10919E-007	2.13427E-007	-1.93000E-001	4.00206E-004	6	..........a	-327.68
	92	3.72	-1.40284E-001	-1.91571E-001	-1.65928E-001	1.05045E-007	-1.09670E-007	2.14715E-007	-1.91000E-001	4.03123E-004	6	..........a	-327.68
	93	3.76	-1.38229E-001	-1.89651E-001	-1.63940E-001	1.03649E-007	-1.09898E-007	2.13546E-007	-1.89000E-001	3.97706E-004	6	..........a	-327.68
	94	3.8	-1.36223E-001	-1.87593E-001	-1.61908E-001	1.04999E-007	-1.07917E-007	2.12916E-007	-1.87000E-001	3.90623E-004	6	..........a	-327.68
	95	3.84	-1.34179E-001	-1.85568E-001	-1.59874E-001	1.06379E-007	-1.08282E-007	2.14661E-007	-1.85000E-001	4.01039E-004	6	..........a	-327.68
	96	3.88	-1.32229E-001	-1.83569E-001	-1.57899E-001	1.06112E-007	-1.06976E-007	2.13088E-007	-1.83000E-001	3.96456E-004	6	..........a	-327.68
	97	3.92	-1.30219E-001	-1.81629E-001	-1.55924E-001	1.07790E-007	-1.06267E-007	2.14057E-007	-1.81000E-001	4.02706E-004	6	..........a	-327.68
	98	3.96	-1.28235E-001	-1.79580E-001	-1.53908E-001	1.07513E-007	-1.06723E-007	2.14236E-007	-1.79000E-001	3.98539E-004	6	..........a	-327.68
	99	4	-1.26171E-001	-1.77590E-001	-1.51880E-001	1.08565E-007	-1.04470E-007	2.13035E-007	-1.77000E-001	3.98539E-004	6	..........a	-327.68
	100	4.04	-1.24271E-001	-1.75591E-001	-1.49931E-001	1.09435E-007	-1.05102E-007	2.14536E-007	-1.75000E-001	3.93123E-004	6	..........a	-327.68
