EXPLAIN
TAG	SQUARE_WAVE
TITLE	LABEL	Square Wave Voltammetry	Test Identifier
DATE	LABEL	8/10/2020	Date
TIME	LABEL	20:07:44	Time
NOTES	NOTES	1	Notes...
	
PSTAT	PSTAT	REF600-24079	Potentiostat
VINIT	QUANT	-3.50000E-001	Initial E (V)
VFINAL	QUANT	-1.50000E-001	Final E (V)
STEPSIZE	QUANT	2.00000E+000	Step Size (mV)
TIMERRES	QUANT	3.33340E-005	&Timer Resolution
FREQUENCY	QUANT	1.00000E+002	Frequency (Hz)
PULSESIZE	QUANT	2.50000E+001	Pulse Size E (mV)
PULSEON	QUANT	1.00000E-002	Pulse &Time (s)
NOISEREJECT	TOGGLE	F	Noise Rejection
AREA	QUANT	2.00000E-002	Sample Area (cm^2)
IMODE	SELECTOR	1	I/E Range Mode
IRANGE	QUANT	1.00000E-002	Max Current (mA)
EQDELAY	IQUANT	10	Equil. Time (s)
IRCOMP	SELECTOR	0	IRComp
PFCOR	QUANT	5.00000E+001	PF Corr. (ohm)
CYCLES	IQUANT	101	C&ycles (#)
ELECTRODETYPE	SELECTOR	0	Electrode Type
STRIPPING	TOGGLE	F	Used for Stripping
POLARITY	TOGGLE	F	Signal Polarity
LINEFREQ	IQUANT	60	Line Frequency (Hz)
INTPERIOD	QUANT	3.3334E-005	Integration Period (s)
SEQUENCER	TOGGLE	TRUE	Run as Sequence
PSTATMODEL	IQUANT	4	Pstat Model
PSTATSECTION	LABEL	REF600-24079	Pstat Section
PSTATSERIALNO	LABEL	24079	Pstat Serial Number
CTRLMODE	IQUANT	1	Control Mode
ELECTROMETER	IQUANT	0	RE=0 or CS=1
IESTAB	IQUANT	2	I/E Stability
CASPEED	IQUANT	6	Control Amp Speed
CONVENTION	IQUANT	1	Current Convention
ICHRANGE	IQUANT	2	Ich Range
ICHRANGEMODE	TOGGLE	F	Ich Auto Range
ICHOFFSETENABLE	TOGGLE	F	Ich Offset Enable
ICHOFFSET	QUANT	0	Ich Offset (V)
ICHFILTER	IQUANT	2	Ich Filter
VCHRANGE	IQUANT	2	Vch Range
VCHRANGEMODE	TOGGLE	F	Vch Auto Range
VCHOFFSETENABLE	TOGGLE	F	Vch Offset Enable
VCHOFFSET	QUANT	0	Vch Offset (V)
VCHFILTER	IQUANT	2	Vch Filter
ACHRANGE	IQUANT	2	Ach Range
ACHOFFSETENABLE	TOGGLE	F	Ach Offset Enable
ACHOFFSET	QUANT	0	Ach Offset (V)
ACHFILTER	IQUANT	1	Ach Filter
IERANGELOWERLIMIT	IQUANT	1	I/E Range Lower Limit
IERANGEMODE	TOGGLE	F	I/E AutoRange
IERANGE	IQUANT	7	I/E Range
POSFEEDENABLE	TOGGLE	F	Positive Feedback IR Comp
POSFEEDRESISTANCE	QUANT	0	Positive Feedback Resistance (ohm)
ACHSELECT	IQUANT	0	Ach Select
SENSECABLEID	IQUANT	13	Sense Cable ID
PWRCABLEID	IQUANT	13	Power Cable ID
DCCALDATE	LABEL	6/30/2020	DC Calibration Date
ACCALDATE	LABEL	6/30/2020	AC Calibration Date
THERMOSELECT	IQUANT	1	Thermo Select
FRAMEWORKVERSION	LABEL	7.8.2	Framework Version
INSTRUMENTVERSION	LABEL	4.40	Instrument Version
CURVE	TABLE	101
	Pt	T	Vfwd	Vrev	Vstep	Ifwd	Irev	Idif	Sig	Ach	IERange	Over	Temp
	#	s	V	V	V	A	A	A	V	V	#	bits	deg C
	0	0.01	-3.25046E-001	-3.74573E-001	-3.49809E-001	-1.74562E-007	5.11690E-008	-2.25731E-007	-3.75000E-001	4.07706E-004	7	..........a	-327.68
	1	0.02	-3.23463E-001	-3.72549E-001	-3.48006E-001	-5.96619E-007	8.45736E-008	-6.81193E-007	-3.73000E-001	3.89373E-004	7	..........a	-327.68
	2	0.03	-3.21419E-001	-3.70593E-001	-3.46006E-001	-5.75850E-007	1.02309E-007	-6.78159E-007	-3.71000E-001	3.99373E-004	7	..........a	-327.68
	3	0.04	-3.19454E-001	-3.68586E-001	-3.44020E-001	-5.63215E-007	1.10077E-007	-6.73292E-007	-3.69000E-001	3.74373E-004	7	..........a	-327.68
	4	0.05	-3.17451E-001	-3.66544E-001	-3.41998E-001	-5.53780E-007	1.21479E-007	-6.75259E-007	-3.67000E-001	3.61039E-004	7	..........a	-327.68
	5	0.06	-3.15466E-001	-3.64524E-001	-3.39995E-001	-5.47046E-007	1.27746E-007	-6.74792E-007	-3.65000E-001	3.56039E-004	7	..........a	-327.68
	6	0.07	-3.13421E-001	-3.62534E-001	-3.37978E-001	-5.39311E-007	1.36114E-007	-6.75425E-007	-3.63000E-001	3.72706E-004	7	..........a	-327.68
	7	0.08	-3.11431E-001	-3.60559E-001	-3.35995E-001	-5.33211E-007	1.43915E-007	-6.77126E-007	-3.61000E-001	3.62706E-004	7	..........a	-327.68
	8	0.09	-3.09449E-001	-3.58496E-001	-3.33973E-001	-5.28577E-007	1.49016E-007	-6.77592E-007	-3.59000E-001	3.82706E-004	7	..........a	-327.68
	9	0.1	-3.07443E-001	-3.56519E-001	-3.31981E-001	-5.21576E-007	1.56817E-007	-6.78392E-007	-3.57000E-001	3.66039E-004	7	..........a	-327.68
	10	0.11	-3.05424E-001	-3.54551E-001	-3.29988E-001	-5.17875E-007	1.60284E-007	-6.78159E-007	-3.55000E-001	3.61039E-004	7	..........a	-327.68
	11	0.12	-3.03448E-001	-3.52573E-001	-3.28010E-001	-5.12575E-007	1.66718E-007	-6.79293E-007	-3.53000E-001	3.66039E-004	7	..........a	-327.68
	12	0.13	-3.01454E-001	-3.50546E-001	-3.26000E-001	-5.07074E-007	1.73152E-007	-6.80226E-007	-3.51000E-001	3.87706E-004	7	..........a	-327.68
	13	0.14	-2.99436E-001	-3.48548E-001	-3.23992E-001	-5.03307E-007	1.77653E-007	-6.80959E-007	-3.49000E-001	3.66039E-004	7	..........a	-327.68
	14	0.15	-2.97466E-001	-3.46544E-001	-3.22005E-001	-5.00006E-007	1.83920E-007	-6.83927E-007	-3.47000E-001	3.86039E-004	7	..........a	-327.68
	15	0.16	-2.95449E-001	-3.44536E-001	-3.19993E-001	-4.96139E-007	1.89721E-007	-6.85860E-007	-3.45000E-001	3.77706E-004	7	..........a	-327.68
	16	0.17	-2.93503E-001	-3.42494E-001	-3.17998E-001	-4.90938E-007	1.95355E-007	-6.86294E-007	-3.43000E-001	3.74373E-004	7	..........a	-327.68
	17	0.18	-2.91413E-001	-3.40546E-001	-3.15979E-001	-4.90171E-007	1.99323E-007	-6.89494E-007	-3.41000E-001	3.99373E-004	7	..........a	-327.68
	18	0.19	-2.89423E-001	-3.38531E-001	-3.13977E-001	-4.83270E-007	2.01189E-007	-6.84460E-007	-3.39000E-001	3.81039E-004	7	..........a	-327.68
	19	0.2	-2.87429E-001	-3.36538E-001	-3.11983E-001	-4.77670E-007	2.07024E-007	-6.84693E-007	-3.37000E-001	3.69373E-004	7	..........a	-327.68
	20	0.21	-2.85454E-001	-3.34503E-001	-3.09978E-001	-4.72602E-007	2.11324E-007	-6.83927E-007	-3.35000E-001	3.69373E-004	7	..........a	-327.68
	21	0.22	-2.83426E-001	-3.32524E-001	-3.07975E-001	-4.68468E-007	2.15191E-007	-6.83660E-007	-3.33000E-001	3.82706E-004	7	..........a	-327.68
	22	0.23	-2.81399E-001	-3.30548E-001	-3.05973E-001	-4.66035E-007	2.19359E-007	-6.85393E-007	-3.31000E-001	3.84373E-004	7	..........a	-327.68
	23	0.24	-2.79441E-001	-3.28544E-001	-3.03993E-001	-4.62568E-007	2.22059E-007	-6.84627E-007	-3.29000E-001	3.84373E-004	7	..........a	-327.68
	24	0.25	-2.77446E-001	-3.26536E-001	-3.01991E-001	-4.58934E-007	2.28293E-007	-6.87227E-007	-3.27000E-001	3.92706E-004	7	..........a	-327.68
	25	0.26	-2.75476E-001	-3.24548E-001	-3.00012E-001	-4.57534E-007	2.30693E-007	-6.88227E-007	-3.25000E-001	3.59373E-004	7	..........a	-327.68
	26	0.27	-2.73416E-001	-3.22544E-001	-2.97980E-001	-4.52266E-007	2.34627E-007	-6.86894E-007	-3.23000E-001	3.97706E-004	7	..........a	-327.68
	27	0.28	-2.71453E-001	-3.20541E-001	-2.95997E-001	-4.50533E-007	2.40195E-007	-6.90727E-007	-3.21000E-001	3.69373E-004	7	..........a	-327.68
	28	0.29	-2.69453E-001	-3.18454E-001	-2.93953E-001	-4.46065E-007	2.42062E-007	-6.88127E-007	-3.19000E-001	3.69373E-004	7	..........a	-327.68
	29	0.3	-2.67431E-001	-3.16484E-001	-2.91958E-001	-4.41698E-007	2.45395E-007	-6.87094E-007	-3.17000E-001	3.66039E-004	7	..........a	-327.68
	30	0.31	-2.65368E-001	-3.14564E-001	-2.89966E-001	-4.39131E-007	2.47329E-007	-6.86460E-007	-3.15000E-001	3.79373E-004	7	..........a	-327.68
	31	0.32	-2.63453E-001	-3.12534E-001	-2.87993E-001	-4.33897E-007	2.53363E-007	-6.87260E-007	-3.13000E-001	3.87706E-004	7	..........a	-327.68
	32	0.33	-2.61431E-001	-3.10484E-001	-2.85958E-001	-4.34664E-007	2.55930E-007	-6.90594E-007	-3.11000E-001	3.69373E-004	7	..........a	-327.68
	33	0.34	-2.59431E-001	-3.08501E-001	-2.83966E-001	-4.31097E-007	2.56564E-007	-6.87660E-007	-3.09000E-001	3.56039E-004	7	..........a	-327.68
	34	0.35	-2.57424E-001	-3.06553E-001	-2.81988E-001	-4.26596E-007	2.61498E-007	-6.88094E-007	-3.07000E-001	3.91039E-004	7	..........a	-327.68
	35	0.36	-2.55451E-001	-3.04564E-001	-2.80008E-001	-4.23296E-007	2.64298E-007	-6.87594E-007	-3.05000E-001	3.61039E-004	7	..........a	-327.68
	36	0.37	-2.53458E-001	-3.02519E-001	-2.77988E-001	-4.19462E-007	2.65265E-007	-6.84727E-007	-3.03000E-001	3.72706E-004	7	..........a	-327.68
	37	0.38	-2.51421E-001	-3.00543E-001	-2.75982E-001	-4.17928E-007	2.67832E-007	-6.85760E-007	-3.01000E-001	3.89373E-004	7	..........a	-327.68
	38	0.39	-2.49436E-001	-2.98559E-001	-2.73998E-001	-4.13628E-007	2.72566E-007	-6.86194E-007	-2.99000E-001	3.66039E-004	7	..........a	-327.68
	39	0.4	-2.47418E-001	-2.96554E-001	-2.71986E-001	-4.11727E-007	2.74166E-007	-6.85894E-007	-2.97000E-001	3.94373E-004	7	..........a	-327.68
	40	0.41	-2.45443E-001	-2.94548E-001	-2.69995E-001	-4.11294E-007	2.77933E-007	-6.89227E-007	-2.95000E-001	3.89373E-004	7	..........a	-327.68
	41	0.42	-2.43434E-001	-2.92489E-001	-2.67962E-001	-4.08694E-007	2.81200E-007	-6.89894E-007	-2.93000E-001	3.81039E-004	7	..........a	-327.68
	42	0.43	-2.41371E-001	-2.90564E-001	-2.65968E-001	-4.05793E-007	2.83634E-007	-6.89427E-007	-2.91000E-001	3.71039E-004	7	..........a	-327.68
	43	0.44	-2.39448E-001	-2.88539E-001	-2.63993E-001	-4.04360E-007	2.84034E-007	-6.88394E-007	-2.89000E-001	3.69373E-004	7	..........a	-327.68
	44	0.45	-2.37441E-001	-2.86479E-001	-2.61960E-001	-3.98092E-007	2.86201E-007	-6.84293E-007	-2.87000E-001	3.82706E-004	7	..........a	-327.68
	45	0.46	-2.35453E-001	-2.84511E-001	-2.59982E-001	-3.95192E-007	2.87168E-007	-6.82360E-007	-2.85000E-001	3.56039E-004	7	..........a	-327.68
	46	0.47	-2.33374E-001	-2.82566E-001	-2.57970E-001	-3.91491E-007	2.89668E-007	-6.81160E-007	-2.83000E-001	3.67706E-004	7	..........a	-327.68
	47	0.48	-2.31414E-001	-2.80544E-001	-2.55979E-001	-3.93292E-007	2.92569E-007	-6.85860E-007	-2.81000E-001	3.82706E-004	7	..........a	-327.68
	48	0.49	-2.29444E-001	-2.78498E-001	-2.53971E-001	-3.91158E-007	2.95436E-007	-6.86594E-007	-2.79000E-001	3.77706E-004	7	..........a	-327.68
	49	0.5	-2.27413E-001	-2.76508E-001	-2.51960E-001	-3.88091E-007	2.97769E-007	-6.85860E-007	-2.77000E-001	3.97706E-004	7	..........a	-327.68
	50	0.51	-2.25403E-001	-2.74559E-001	-2.49981E-001	-3.85157E-007	2.99203E-007	-6.84360E-007	-2.75000E-001	3.69373E-004	7	..........a	-327.68
	51	0.52	-2.23444E-001	-2.72554E-001	-2.47999E-001	-3.82857E-007	3.01170E-007	-6.84027E-007	-2.73000E-001	3.86039E-004	7	..........a	-327.68
	52	0.53	-2.21428E-001	-2.70534E-001	-2.45981E-001	-3.81790E-007	3.03770E-007	-6.85560E-007	-2.71000E-001	3.59373E-004	7	..........a	-327.68
	53	0.54	-2.19451E-001	-2.68514E-001	-2.43983E-001	-3.79790E-007	3.04003E-007	-6.83793E-007	-2.69000E-001	3.62706E-004	7	..........a	-327.68
	54	0.55	-2.17424E-001	-2.66559E-001	-2.41992E-001	-3.74522E-007	3.07304E-007	-6.81826E-007	-2.67000E-001	3.72706E-004	7	..........a	-327.68
	55	0.56	-2.15433E-001	-2.64571E-001	-2.40002E-001	-3.75256E-007	3.08137E-007	-6.83393E-007	-2.65000E-001	3.51039E-004	7	..........a	-327.68
	56	0.57	-2.13428E-001	-2.62514E-001	-2.37971E-001	-3.73956E-007	3.10138E-007	-6.84093E-007	-2.63000E-001	3.89373E-004	7	..........a	-327.68
	57	0.58	-2.11439E-001	-2.60486E-001	-2.35963E-001	-3.72322E-007	3.11371E-007	-6.83693E-007	-2.61000E-001	3.61039E-004	7	..........a	-327.68
	58	0.59	-2.09383E-001	-2.58538E-001	-2.33960E-001	-3.70555E-007	3.11971E-007	-6.82526E-007	-2.59000E-001	3.67706E-004	7	..........a	-327.68
	59	0.6	-2.07438E-001	-2.56564E-001	-2.32001E-001	-3.69188E-007	3.15172E-007	-6.84360E-007	-2.57000E-001	3.92706E-004	7	..........a	-327.68
	60	0.61	-2.05436E-001	-2.54474E-001	-2.29955E-001	-3.66855E-007	3.14638E-007	-6.81493E-007	-2.55000E-001	3.52706E-004	7	..........a	-327.68
	61	0.62	-2.03431E-001	-2.52523E-001	-2.27977E-001	-3.63054E-007	3.16472E-007	-6.79526E-007	-2.53000E-001	3.94373E-004	7	..........a	-327.68
	62	0.63	-2.01429E-001	-2.50558E-001	-2.25993E-001	-3.62854E-007	3.19906E-007	-6.82760E-007	-2.51000E-001	3.76039E-004	7	..........a	-327.68
	63	0.64	-1.99449E-001	-2.48558E-001	-2.24003E-001	-3.61087E-007	3.20806E-007	-6.81893E-007	-2.49000E-001	3.61039E-004	7	..........a	-327.68
	64	0.65	-1.97433E-001	-2.46526E-001	-2.21979E-001	-3.60154E-007	3.23706E-007	-6.83860E-007	-2.47000E-001	3.82706E-004	7	..........a	-327.68
	65	0.66	-1.95441E-001	-2.44541E-001	-2.19991E-001	-3.60787E-007	3.27340E-007	-6.88127E-007	-2.45000E-001	3.52706E-004	7	..........a	-327.68
	66	0.67	-1.93443E-001	-2.42566E-001	-2.18004E-001	-3.60487E-007	3.27873E-007	-6.88361E-007	-2.43000E-001	3.67706E-004	7	..........a	-327.68
	67	0.68	-1.91424E-001	-2.40554E-001	-2.15989E-001	-3.58954E-007	3.30107E-007	-6.89061E-007	-2.41000E-001	3.56039E-004	7	..........a	-327.68
	68	0.69	-1.89508E-001	-2.38523E-001	-2.14015E-001	-3.56920E-007	3.32341E-007	-6.89261E-007	-2.39000E-001	3.94373E-004	7	..........a	-327.68
	69	0.7	-1.87441E-001	-2.36511E-001	-2.11976E-001	-3.52719E-007	3.31141E-007	-6.83860E-007	-2.37000E-001	3.64373E-004	7	..........a	-327.68
	70	0.71	-1.85434E-001	-2.34544E-001	-2.09989E-001	-3.53419E-007	3.33007E-007	-6.86427E-007	-2.35000E-001	3.56039E-004	7	..........a	-327.68
	71	0.72	-1.83398E-001	-2.32528E-001	-2.07963E-001	-3.50019E-007	3.34341E-007	-6.84360E-007	-2.33000E-001	3.66039E-004	7	..........a	-327.68
	72	0.73	-1.81418E-001	-2.30508E-001	-2.05963E-001	-3.48986E-007	3.36841E-007	-6.85827E-007	-2.31000E-001	3.56039E-004	7	..........a	-327.68
	73	0.74	-1.79413E-001	-2.28518E-001	-2.03965E-001	-3.47652E-007	3.37341E-007	-6.84993E-007	-2.29000E-001	3.79373E-004	7	..........a	-327.68
	74	0.75	-1.77374E-001	-2.26563E-001	-2.01968E-001	-3.46652E-007	3.38608E-007	-6.85260E-007	-2.27000E-001	3.84373E-004	7	..........a	-327.68
	75	0.76	-1.75426E-001	-2.24536E-001	-1.99981E-001	-3.48352E-007	3.44042E-007	-6.92394E-007	-2.25000E-001	3.66039E-004	7	..........a	-327.68
	76	0.77	-1.73439E-001	-2.22496E-001	-1.97968E-001	-3.45785E-007	3.44176E-007	-6.89961E-007	-2.23000E-001	3.59373E-004	7	..........a	-327.68
	77	0.78	-1.71446E-001	-2.20524E-001	-1.95985E-001	-3.45918E-007	3.45876E-007	-6.91794E-007	-2.21000E-001	3.69373E-004	7	..........a	-327.68
	78	0.79	-1.69428E-001	-2.18536E-001	-1.93982E-001	-3.42518E-007	3.45676E-007	-6.88194E-007	-2.19000E-001	3.64373E-004	7	..........a	-327.68
	79	0.8	-1.67441E-001	-2.16551E-001	-1.91996E-001	-3.39618E-007	3.46476E-007	-6.86093E-007	-2.17000E-001	3.81039E-004	7	..........a	-327.68
	80	0.81	-1.65456E-001	-2.14469E-001	-1.89963E-001	-3.43251E-007	3.47843E-007	-6.91094E-007	-2.15000E-001	3.84373E-004	7	..........a	-327.68
	81	0.82	-1.63444E-001	-2.12536E-001	-1.87990E-001	-3.39117E-007	3.49010E-007	-6.88127E-007	-2.13000E-001	3.76039E-004	7	..........a	-327.68
	82	0.83	-1.61408E-001	-2.10568E-001	-1.85988E-001	-3.39984E-007	3.51977E-007	-6.91961E-007	-2.11000E-001	3.67706E-004	7	..........a	-327.68
	83	0.84	-1.59418E-001	-2.08539E-001	-1.83978E-001	-3.38184E-007	3.53744E-007	-6.91928E-007	-2.09000E-001	3.64373E-004	7	..........a	-327.68
	84	0.85	-1.57424E-001	-2.06506E-001	-1.81965E-001	-3.36184E-007	3.54910E-007	-6.91094E-007	-2.07000E-001	3.89373E-004	7	..........a	-327.68
	85	0.86	-1.55404E-001	-2.04523E-001	-1.79963E-001	-3.36617E-007	3.52543E-007	-6.89161E-007	-2.05000E-001	3.71039E-004	7	..........a	-327.68
	86	0.87	-1.53398E-001	-2.02536E-001	-1.77967E-001	-3.34584E-007	3.55511E-007	-6.90094E-007	-2.03000E-001	3.87706E-004	7	..........a	-327.68
	87	0.88	-1.51426E-001	-2.00568E-001	-1.75997E-001	-3.34984E-007	3.57944E-007	-6.92928E-007	-2.01000E-001	3.72706E-004	7	..........a	-327.68
	88	0.89	-1.49439E-001	-1.98548E-001	-1.73993E-001	-3.32217E-007	3.58344E-007	-6.90561E-007	-1.99000E-001	3.71039E-004	7	..........a	-327.68
	89	0.9	-1.47448E-001	-1.96519E-001	-1.71983E-001	-3.32017E-007	3.60244E-007	-6.92261E-007	-1.97000E-001	3.66039E-004	7	..........a	-327.68
	90	0.91	-1.45398E-001	-1.94564E-001	-1.69981E-001	-3.33750E-007	3.60111E-007	-6.93861E-007	-1.95000E-001	3.79373E-004	7	..........a	-327.68
	91	0.92	-1.43443E-001	-1.92571E-001	-1.68007E-001	-3.33517E-007	3.62678E-007	-6.96195E-007	-1.93000E-001	3.89373E-004	7	..........a	-327.68
	92	0.93	-1.41398E-001	-1.90479E-001	-1.65938E-001	-3.33117E-007	3.63145E-007	-6.96262E-007	-1.91000E-001	3.76039E-004	7	..........a	-327.68
	93	0.94	-1.39416E-001	-1.88479E-001	-1.63948E-001	-3.30816E-007	3.63378E-007	-6.94195E-007	-1.89000E-001	3.61039E-004	7	..........a	-327.68
	94	0.95	-1.37388E-001	-1.86534E-001	-1.61961E-001	-3.26649E-007	3.66212E-007	-6.92861E-007	-1.87000E-001	3.76039E-004	7	..........a	-327.68
	95	0.96	-1.35431E-001	-1.84536E-001	-1.59983E-001	-3.27249E-007	3.65412E-007	-6.92661E-007	-1.85000E-001	3.76039E-004	7	..........a	-327.68
	96	0.97	-1.33428E-001	-1.82513E-001	-1.57970E-001	-3.23715E-007	3.64978E-007	-6.88694E-007	-1.83000E-001	3.52706E-004	7	..........a	-327.68
	97	0.98	-1.31419E-001	-1.80496E-001	-1.55958E-001	-3.25882E-007	3.66779E-007	-6.92661E-007	-1.81000E-001	3.67706E-004	7	..........a	-327.68
	98	0.99	-1.29348E-001	-1.78529E-001	-1.53938E-001	-3.23049E-007	3.67946E-007	-6.90994E-007	-1.79000E-001	3.67706E-004	7	..........a	-327.68
	99	1	-1.27429E-001	-1.76553E-001	-1.51991E-001	-3.24415E-007	3.68879E-007	-6.93294E-007	-1.77000E-001	3.69373E-004	7	..........a	-327.68
	100	1.01	-1.25446E-001	-1.74504E-001	-1.49975E-001	-3.24449E-007	3.69946E-007	-6.94395E-007	-1.75000E-001	3.67706E-004	7	..........a	-327.68
