EXPLAIN
TAG	SQUARE_WAVE
TITLE	LABEL	Square Wave Voltammetry	Test Identifier
DATE	LABEL	8/10/2020	Date
TIME	LABEL	16:19:48	Time
NOTES	NOTES	1	Notes...
	 STD1 1 fg/mL 08102
PSTAT	PSTAT	REF600-24079	Potentiostat
VINIT	QUANT	-3.50000E-001	Initial E (V)
VFINAL	QUANT	-1.50000E-001	Final E (V)
STEPSIZE	QUANT	2.00000E+000	Step Size (mV)
TIMERRES	QUANT	3.33340E-005	&Timer Resolution
FREQUENCY	QUANT	1.00000E+001	Frequency (Hz)
PULSESIZE	QUANT	2.50000E+001	Pulse Size E (mV)
PULSEON	QUANT	1.00000E-001	Pulse &Time (s)
NOISEREJECT	TOGGLE	F	Noise Rejection
AREA	QUANT	2.00000E-002	Sample Area (cm^2)
IMODE	SELECTOR	1	I/E Range Mode
IRANGE	QUANT	1.00000E-003	Max Current (mA)
EQDELAY	IQUANT	10	Equil. Time (s)
IRCOMP	SELECTOR	0	IRComp
PFCOR	QUANT	5.00000E+001	PF Corr. (ohm)
CYCLES	IQUANT	101	C&ycles (#)
ELECTRODETYPE	SELECTOR	0	Electrode Type
STRIPPING	TOGGLE	F	Used for Stripping
POLARITY	TOGGLE	F	Signal Polarity
LINEFREQ	IQUANT	60	Line Frequency (Hz)
INTPERIOD	QUANT	3.3334E-005	Integration Period (s)
SEQUENCER	TOGGLE	TRUE	Run as Sequence
PSTATMODEL	IQUANT	4	Pstat Model
PSTATSECTION	LABEL	REF600-24079	Pstat Section
PSTATSERIALNO	LABEL	24079	Pstat Serial Number
CTRLMODE	IQUANT	1	Control Mode
ELECTROMETER	IQUANT	0	RE=0 or CS=1
IESTAB	IQUANT	2	I/E Stability
CASPEED	IQUANT	6	Control Amp Speed
CONVENTION	IQUANT	1	Current Convention
ICHRANGE	IQUANT	2	Ich Range
ICHRANGEMODE	TOGGLE	F	Ich Auto Range
ICHOFFSETENABLE	TOGGLE	F	Ich Offset Enable
ICHOFFSET	QUANT	0	Ich Offset (V)
ICHFILTER	IQUANT	2	Ich Filter
VCHRANGE	IQUANT	2	Vch Range
VCHRANGEMODE	TOGGLE	F	Vch Auto Range
VCHOFFSETENABLE	TOGGLE	F	Vch Offset Enable
VCHOFFSET	QUANT	0	Vch Offset (V)
VCHFILTER	IQUANT	2	Vch Filter
ACHRANGE	IQUANT	2	Ach Range
ACHOFFSETENABLE	TOGGLE	F	Ach Offset Enable
ACHOFFSET	QUANT	0	Ach Offset (V)
ACHFILTER	IQUANT	1	Ach Filter
IERANGELOWERLIMIT	IQUANT	1	I/E Range Lower Limit
IERANGEMODE	TOGGLE	F	I/E AutoRange
IERANGE	IQUANT	6	I/E Range
POSFEEDENABLE	TOGGLE	F	Positive Feedback IR Comp
POSFEEDRESISTANCE	QUANT	0	Positive Feedback Resistance (ohm)
ACHSELECT	IQUANT	0	Ach Select
SENSECABLEID	IQUANT	13	Sense Cable ID
PWRCABLEID	IQUANT	13	Power Cable ID
DCCALDATE	LABEL	6/30/2020	DC Calibration Date
ACCALDATE	LABEL	6/30/2020	AC Calibration Date
THERMOSELECT	IQUANT	1	Thermo Select
FRAMEWORKVERSION	LABEL	7.8.2	Framework Version
INSTRUMENTVERSION	LABEL	4.40	Instrument Version
CURVE	TABLE	101
	Pt	T	Vfwd	Vrev	Vstep	Ifwd	Irev	Idif	Sig	Ach	IERange	Over	Temp
	#	s	V	V	V	A	A	A	V	V	#	bits	deg C
	0	0.1	-3.24882E-001	-3.74885E-001	-3.49883E-001	-1.04387E-007	-1.82498E-007	7.81116E-008	-3.75000E-001	4.22206E-004	6	..........a	-327.68
	1	0.2	-3.22849E-001	-3.72900E-001	-3.47874E-001	-9.11617E-008	-1.75987E-007	8.48255E-008	-3.73000E-001	4.18206E-004	6	..........a	-327.68
	2	0.3	-3.20888E-001	-3.70764E-001	-3.45826E-001	-8.78139E-008	-1.71900E-007	8.40864E-008	-3.71000E-001	4.19039E-004	6	..........a	-327.68
	3	0.4	-3.18882E-001	-3.68940E-001	-3.43911E-001	-8.53773E-008	-1.68558E-007	8.31806E-008	-3.69000E-001	4.08206E-004	6	..........a	-327.68
	4	0.5	-3.16807E-001	-3.66858E-001	-3.41832E-001	-8.31650E-008	-1.65674E-007	8.25095E-008	-3.67000E-001	4.15539E-004	6	..........a	-327.68
	5	0.6	-3.14847E-001	-3.64875E-001	-3.39861E-001	-8.10934E-008	-1.62699E-007	8.16057E-008	-3.65000E-001	4.12539E-004	6	..........a	-327.68
	6	0.7	-3.12879E-001	-3.62792E-001	-3.37835E-001	-7.91758E-008	-1.59965E-007	8.07889E-008	-3.63000E-001	4.31873E-004	6	..........a	-327.68
	7	0.8	-3.10857E-001	-3.60871E-001	-3.35864E-001	-7.70115E-008	-1.57361E-007	8.03492E-008	-3.61000E-001	4.18373E-004	6	..........a	-327.68
	8	0.9	-3.08858E-001	-3.58859E-001	-3.33859E-001	-7.52670E-008	-1.54599E-007	7.93318E-008	-3.59000E-001	4.25373E-004	6	..........a	-327.68
	9	1	-3.06812E-001	-3.56891E-001	-3.31851E-001	-7.33738E-008	-1.52215E-007	7.88417E-008	-3.57000E-001	4.21539E-004	6	..........a	-327.68
	10	1.1	-3.04890E-001	-3.54825E-001	-3.29857E-001	-7.15619E-008	-1.49651E-007	7.80893E-008	-3.55000E-001	4.20706E-004	6	..........a	-327.68
	11	1.2	-3.02892E-001	-3.52905E-001	-3.27899E-001	-6.98133E-008	-1.47262E-007	7.74492E-008	-3.53000E-001	4.14706E-004	6	..........a	-327.68
	12	1.3	-3.00904E-001	-3.50894E-001	-3.25899E-001	-6.79804E-008	-1.44954E-007	7.69735E-008	-3.51000E-001	4.15039E-004	6	..........a	-327.68
	13	1.4	-2.98853E-001	-3.48904E-001	-3.23878E-001	-6.63722E-008	-1.42507E-007	7.61350E-008	-3.49000E-001	4.09039E-004	6	..........a	-327.68
	14	1.5	-2.96892E-001	-3.46866E-001	-3.21879E-001	-6.46410E-008	-1.40292E-007	7.56510E-008	-3.47000E-001	4.06873E-004	6	..........a	-327.68
	15	1.6	-2.94867E-001	-3.44911E-001	-3.19889E-001	-6.27967E-008	-1.37912E-007	7.51149E-008	-3.45000E-001	4.15539E-004	6	..........a	-327.68
	16	1.7	-2.92751E-001	-3.42884E-001	-3.17818E-001	-6.11769E-008	-1.36080E-007	7.49035E-008	-3.43000E-001	3.99873E-004	6	..........a	-327.68
	17	1.8	-2.90785E-001	-3.40903E-001	-3.15844E-001	-5.94997E-008	-1.33694E-007	7.41944E-008	-3.41000E-001	4.16206E-004	6	..........a	-327.68
	18	1.9	-2.88893E-001	-3.38805E-001	-3.13849E-001	-5.78995E-008	-1.31586E-007	7.36864E-008	-3.39000E-001	4.06373E-004	6	..........a	-327.68
	19	2	-2.86848E-001	-3.36881E-001	-3.11864E-001	-5.61476E-008	-1.29775E-007	7.36274E-008	-3.37000E-001	3.99873E-004	6	..........a	-327.68
	20	2.1	-2.84853E-001	-3.34850E-001	-3.09851E-001	-5.44673E-008	-1.27603E-007	7.31360E-008	-3.35000E-001	4.12373E-004	6	..........a	-327.68
	21	2.2	-2.82791E-001	-3.32855E-001	-3.07823E-001	-5.29105E-008	-1.25856E-007	7.29453E-008	-3.33000E-001	4.38539E-004	6	..........a	-327.68
	22	2.3	-2.80902E-001	-3.30810E-001	-3.05856E-001	-5.12023E-008	-1.24005E-007	7.28023E-008	-3.31000E-001	4.37706E-004	6	..........a	-327.68
	23	2.4	-2.78863E-001	-3.28904E-001	-3.03883E-001	-4.94930E-008	-1.22070E-007	7.25766E-008	-3.29000E-001	4.26539E-004	6	..........a	-327.68
	24	2.5	-2.76885E-001	-3.26888E-001	-3.01886E-001	-4.78548E-008	-1.20197E-007	7.23422E-008	-3.27000E-001	4.16039E-004	6	..........a	-327.68
	25	2.6	-2.74846E-001	-3.24877E-001	-2.99862E-001	-4.64200E-008	-1.18483E-007	7.20628E-008	-3.25000E-001	4.24873E-004	6	..........a	-327.68
	26	2.7	-2.72885E-001	-3.22858E-001	-2.97871E-001	-4.49965E-008	-1.16903E-007	7.19068E-008	-3.23000E-001	4.25206E-004	6	..........a	-327.68
	27	2.8	-2.70886E-001	-3.20875E-001	-2.95881E-001	-4.31472E-008	-1.15248E-007	7.21012E-008	-3.21000E-001	4.06539E-004	6	..........a	-327.68
	28	2.9	-2.68878E-001	-3.18855E-001	-2.93867E-001	-4.17271E-008	-1.13500E-007	7.17725E-008	-3.19000E-001	4.31206E-004	6	..........a	-327.68
	29	3	-2.66780E-001	-3.16825E-001	-2.91803E-001	-4.01612E-008	-1.12143E-007	7.19815E-008	-3.17000E-001	4.24706E-004	6	..........a	-327.68
	30	3.1	-2.64885E-001	-3.14844E-001	-2.89864E-001	-3.85557E-008	-1.10467E-007	7.19118E-008	-3.15000E-001	4.09706E-004	6	..........a	-327.68
	31	3.2	-2.62894E-001	-3.12880E-001	-2.87887E-001	-3.70148E-008	-1.08945E-007	7.19305E-008	-3.13000E-001	4.26706E-004	6	..........a	-327.68
	32	3.3	-2.60787E-001	-3.10848E-001	-2.85817E-001	-3.56066E-008	-1.07643E-007	7.20362E-008	-3.11000E-001	4.09206E-004	6	..........a	-327.68
	33	3.4	-2.58798E-001	-3.08858E-001	-2.83828E-001	-3.41524E-008	-1.06029E-007	7.18768E-008	-3.09000E-001	4.24539E-004	6	..........a	-327.68
	34	3.5	-2.56849E-001	-3.06812E-001	-2.81831E-001	-3.26466E-008	-1.04803E-007	7.21565E-008	-3.07000E-001	4.15539E-004	6	..........a	-327.68
	35	3.6	-2.54896E-001	-3.04882E-001	-2.79889E-001	-3.10997E-008	-1.03473E-007	7.23735E-008	-3.05000E-001	4.12373E-004	6	..........a	-327.68
	36	3.7	-2.52859E-001	-3.02897E-001	-2.77878E-001	-2.98919E-008	-1.02338E-007	7.24466E-008	-3.03000E-001	4.16373E-004	6	..........a	-327.68
	37	3.8	-2.50832E-001	-3.00913E-001	-2.75873E-001	-2.87644E-008	-1.01201E-007	7.24369E-008	-3.01000E-001	3.99873E-004	6	..........a	-327.68
	38	3.9	-2.48876E-001	-2.98856E-001	-2.73866E-001	-2.73446E-008	-9.97914E-008	7.24469E-008	-2.99000E-001	3.93706E-004	6	..........a	-327.68
	39	4	-2.46879E-001	-2.96900E-001	-2.71890E-001	-2.63638E-008	-9.86786E-008	7.23149E-008	-2.97000E-001	4.11873E-004	6	..........a	-327.68
	40	4.1	-2.44891E-001	-2.94907E-001	-2.69899E-001	-2.51856E-008	-9.74578E-008	7.22722E-008	-2.95000E-001	4.15539E-004	6	..........a	-327.68
	41	4.2	-2.42774E-001	-2.92790E-001	-2.67782E-001	-2.37471E-008	-9.62136E-008	7.24665E-008	-2.93000E-001	4.02539E-004	6	..........a	-327.68
	42	4.3	-2.40902E-001	-2.90787E-001	-2.65845E-001	-2.28593E-008	-9.49485E-008	7.20892E-008	-2.91000E-001	4.16373E-004	6	..........a	-327.68
	43	4.4	-2.38886E-001	-2.88925E-001	-2.63906E-001	-2.19522E-008	-9.36690E-008	7.17168E-008	-2.89000E-001	4.12539E-004	6	..........a	-327.68
	44	4.5	-2.36873E-001	-2.86854E-001	-2.61864E-001	-2.09587E-008	-9.24055E-008	7.14468E-008	-2.87000E-001	4.07539E-004	6	..........a	-327.68
	45	4.6	-2.34784E-001	-2.84808E-001	-2.59796E-001	-1.99833E-008	-9.11080E-008	7.11247E-008	-2.85000E-001	4.06373E-004	6	..........a	-327.68
	46	4.7	-2.32859E-001	-2.82800E-001	-2.57830E-001	-1.92642E-008	-8.99852E-008	7.07210E-008	-2.83000E-001	4.11539E-004	6	..........a	-327.68
	47	4.8	-2.30860E-001	-2.80908E-001	-2.55884E-001	-1.82121E-008	-8.85547E-008	7.03426E-008	-2.81000E-001	4.16373E-004	6	..........a	-327.68
	48	4.9	-2.28796E-001	-2.78876E-001	-2.53836E-001	-1.74486E-008	-8.72258E-008	6.97772E-008	-2.79000E-001	4.07373E-004	6	..........a	-327.68
	49	5	-2.26807E-001	-2.76899E-001	-2.51853E-001	-1.64938E-008	-8.60777E-008	6.95838E-008	-2.77000E-001	4.03873E-004	6	..........a	-327.68
	50	5.1	-2.24874E-001	-2.74849E-001	-2.49861E-001	-1.59358E-008	-8.49299E-008	6.89941E-008	-2.75000E-001	4.08873E-004	6	..........a	-327.68
	51	5.2	-2.22859E-001	-2.72892E-001	-2.47875E-001	-1.51427E-008	-8.33233E-008	6.81807E-008	-2.73000E-001	3.99373E-004	6	..........a	-327.68
	52	5.3	-2.20884E-001	-2.70886E-001	-2.45885E-001	-1.45526E-008	-8.20742E-008	6.75216E-008	-2.71000E-001	4.10373E-004	6	..........a	-327.68
	53	5.4	-2.18864E-001	-2.68898E-001	-2.43881E-001	-1.35948E-008	-8.07740E-008	6.71792E-008	-2.69000E-001	4.01039E-004	6	..........a	-327.68
	54	5.5	-2.16931E-001	-2.66777E-001	-2.41854E-001	-1.30444E-008	-7.93448E-008	6.63004E-008	-2.67000E-001	4.11873E-004	6	..........a	-327.68
	55	5.6	-2.14883E-001	-2.64904E-001	-2.39894E-001	-1.24140E-008	-7.79307E-008	6.55167E-008	-2.65000E-001	4.17706E-004	6	..........a	-327.68
	56	5.7	-2.12868E-001	-2.62891E-001	-2.37880E-001	-1.15832E-008	-7.66888E-008	6.51056E-008	-2.63000E-001	4.21539E-004	6	..........a	-327.68
	57	5.8	-2.10812E-001	-2.60864E-001	-2.35838E-001	-1.09781E-008	-7.53797E-008	6.44015E-008	-2.61000E-001	4.29373E-004	6	..........a	-327.68
	58	5.9	-2.08850E-001	-2.58802E-001	-2.33826E-001	-1.03191E-008	-7.40788E-008	6.37598E-008	-2.59000E-001	4.42206E-004	6	..........a	-327.68
	59	6	-2.06867E-001	-2.56871E-001	-2.31869E-001	-9.73532E-009	-7.28230E-008	6.30877E-008	-2.57000E-001	4.33373E-004	6	..........a	-327.68
	60	6.1	-2.04810E-001	-2.54897E-001	-2.29854E-001	-8.78587E-009	-7.15228E-008	6.27370E-008	-2.55000E-001	4.28706E-004	6	..........a	-327.68
	61	6.2	-2.02809E-001	-2.52892E-001	-2.27850E-001	-8.13912E-009	-7.01340E-008	6.19949E-008	-2.53000E-001	4.42539E-004	6	..........a	-327.68
	62	6.3	-2.00890E-001	-2.50844E-001	-2.25867E-001	-7.64105E-009	-6.90172E-008	6.13761E-008	-2.51000E-001	4.38039E-004	6	..........a	-327.68
	63	6.4	-1.98871E-001	-2.48893E-001	-2.23882E-001	-6.74628E-009	-6.74940E-008	6.07477E-008	-2.49000E-001	4.14539E-004	6	..........a	-327.68
	64	6.5	-1.96874E-001	-2.46865E-001	-2.21869E-001	-6.30288E-009	-6.63769E-008	6.00740E-008	-2.47000E-001	4.34706E-004	6	..........a	-327.68
	65	6.6	-1.94846E-001	-2.44877E-001	-2.19862E-001	-5.74348E-009	-6.49173E-008	5.91739E-008	-2.45000E-001	4.13873E-004	6	..........a	-327.68
	66	6.7	-1.92874E-001	-2.42768E-001	-2.17821E-001	-5.09807E-009	-6.37859E-008	5.86878E-008	-2.43000E-001	4.18539E-004	6	..........a	-327.68
	67	6.8	-1.90871E-001	-2.40919E-001	-2.15895E-001	-4.34864E-009	-6.27664E-008	5.84178E-008	-2.41000E-001	4.18039E-004	6	..........a	-327.68
	68	6.9	-1.88808E-001	-2.38836E-001	-2.13822E-001	-3.43352E-009	-6.14036E-008	5.79700E-008	-2.39000E-001	4.08539E-004	6	..........a	-327.68
	69	7	-1.86791E-001	-2.36862E-001	-2.11826E-001	-2.95913E-009	-6.02851E-008	5.73260E-008	-2.37000E-001	4.25706E-004	6	..........a	-327.68
	70	7.1	-1.84877E-001	-2.34793E-001	-2.09835E-001	-2.54174E-009	-5.90593E-008	5.65175E-008	-2.35000E-001	4.13539E-004	6	..........a	-327.68
	71	7.2	-1.82840E-001	-2.32863E-001	-2.07851E-001	-1.87666E-009	-5.81701E-008	5.62935E-008	-2.33000E-001	4.23373E-004	6	..........a	-327.68
	72	7.3	-1.80830E-001	-2.30843E-001	-2.05837E-001	-1.15356E-009	-5.70803E-008	5.59268E-008	-2.31000E-001	4.19539E-004	6	..........a	-327.68
	73	7.4	-1.78803E-001	-2.28867E-001	-2.03835E-001	-6.43832E-010	-5.59145E-008	5.52707E-008	-2.29000E-001	4.06373E-004	6	..........a	-327.68
	74	7.5	-1.76872E-001	-2.26819E-001	-2.01845E-001	-9.80958E-011	-5.48647E-008	5.47666E-008	-2.27000E-001	4.18373E-004	6	..........a	-327.68
	75	7.6	-1.74889E-001	-2.24865E-001	-1.99877E-001	5.62655E-010	-5.38656E-008	5.44283E-008	-2.25000E-001	4.10373E-004	6	..........a	-327.68
	76	7.7	-1.72878E-001	-2.22871E-001	-1.97874E-001	1.39576E-009	-5.29322E-008	5.43279E-008	-2.23000E-001	4.11373E-004	6	..........a	-327.68
	77	7.8	-1.70841E-001	-2.20893E-001	-1.95867E-001	1.96850E-009	-5.16787E-008	5.36472E-008	-2.21000E-001	4.10873E-004	6	..........a	-327.68
	78	7.9	-1.68890E-001	-2.18870E-001	-1.93880E-001	2.51490E-009	-5.09332E-008	5.34481E-008	-2.19000E-001	4.13206E-004	6	..........a	-327.68
	79	8	-1.66903E-001	-2.16932E-001	-1.91917E-001	2.94563E-009	-5.01185E-008	5.30641E-008	-2.17000E-001	3.91706E-004	6	..........a	-327.68
	80	8.1	-1.64758E-001	-2.14855E-001	-1.89807E-001	3.53570E-009	-4.92850E-008	5.28207E-008	-2.15000E-001	3.87206E-004	6	..........a	-327.68
	81	8.2	-1.62785E-001	-2.12890E-001	-1.87837E-001	4.05343E-009	-4.84863E-008	5.25397E-008	-2.13000E-001	4.03206E-004	6	..........a	-327.68
	82	8.3	-1.60912E-001	-2.10816E-001	-1.85864E-001	4.49049E-009	-4.74431E-008	5.19336E-008	-2.11000E-001	3.97206E-004	6	..........a	-327.68
	83	8.4	-1.58863E-001	-2.08867E-001	-1.83865E-001	5.17724E-009	-4.66647E-008	5.18419E-008	-2.09000E-001	3.90706E-004	6	..........a	-327.68
	84	8.5	-1.56826E-001	-2.06862E-001	-1.81844E-001	5.63297E-009	-4.60613E-008	5.16942E-008	-2.07000E-001	3.98373E-004	6	..........a	-327.68
	85	8.6	-1.54804E-001	-2.04855E-001	-1.79830E-001	6.06502E-009	-4.48851E-008	5.09502E-008	-2.05000E-001	3.87873E-004	6	..........a	-327.68
	86	8.7	-1.52887E-001	-2.02812E-001	-1.77850E-001	6.70477E-009	-4.42207E-008	5.09255E-008	-2.03000E-001	3.86039E-004	6	..........a	-327.68
	87	8.8	-1.50874E-001	-2.00897E-001	-1.75886E-001	7.21917E-009	-4.34549E-008	5.06741E-008	-2.01000E-001	3.92706E-004	6	..........a	-327.68
	88	8.9	-1.48860E-001	-1.98873E-001	-1.73866E-001	7.79624E-009	-4.28805E-008	5.06768E-008	-1.99000E-001	3.89206E-004	6	..........a	-327.68
	89	9	-1.46825E-001	-1.96876E-001	-1.71850E-001	8.28230E-009	-4.21074E-008	5.03897E-008	-1.97000E-001	3.79373E-004	6	..........a	-327.68
	90	9.1	-1.44876E-001	-1.94850E-001	-1.69863E-001	8.93039E-009	-4.13690E-008	5.02994E-008	-1.95000E-001	4.00539E-004	6	..........a	-327.68
	91	9.2	-1.42913E-001	-1.92888E-001	-1.67900E-001	9.21276E-009	-4.08109E-008	5.00237E-008	-1.93000E-001	3.85039E-004	6	..........a	-327.68
	92	9.3	-1.40881E-001	-1.90861E-001	-1.65871E-001	9.83083E-009	-4.00215E-008	4.98523E-008	-1.91000E-001	3.88373E-004	6	..........a	-327.68
	93	9.4	-1.38752E-001	-1.88756E-001	-1.63754E-001	1.03396E-008	-3.91644E-008	4.95040E-008	-1.89000E-001	3.86539E-004	6	..........a	-327.68
	94	9.5	-1.36864E-001	-1.86794E-001	-1.61829E-001	1.06913E-008	-3.85977E-008	4.92889E-008	-1.87000E-001	3.84539E-004	6	..........a	-327.68
	95	9.6	-1.34900E-001	-1.84884E-001	-1.59892E-001	1.13554E-008	-3.78702E-008	4.92256E-008	-1.85000E-001	3.75706E-004	6	..........a	-327.68
	96	9.7	-1.32798E-001	-1.82854E-001	-1.57826E-001	1.17287E-008	-3.72938E-008	4.90226E-008	-1.83000E-001	3.78706E-004	6	..........a	-327.68
	97	9.8	-1.30782E-001	-1.80810E-001	-1.55796E-001	1.22875E-008	-3.66654E-008	4.89529E-008	-1.81000E-001	3.85539E-004	6	..........a	-327.68
	98	9.9	-1.28844E-001	-1.78815E-001	-1.53829E-001	1.26472E-008	-3.60810E-008	4.87282E-008	-1.79000E-001	4.02206E-004	6	..........a	-327.68
	99	10	-1.26889E-001	-1.76877E-001	-1.51883E-001	1.30519E-008	-3.53676E-008	4.84195E-008	-1.77000E-001	3.81206E-004	6	..........a	-327.68
	100	10.1	-1.24850E-001	-1.74888E-001	-1.49869E-001	1.35796E-008	-3.47625E-008	4.83421E-008	-1.75000E-001	3.83539E-004	6	..........a	-327.68
