EXPLAIN
TAG	SQUARE_WAVE
TITLE	LABEL	Square Wave Voltammetry	Test Identifier
DATE	LABEL	8/10/2020	Date
TIME	LABEL	14:41:58	Time
NOTES	NOTES	1	Notes...
	
PSTAT	PSTAT	REF600-24079	Potentiostat
VINIT	QUANT	-3.50000E-001	Initial E (V)
VFINAL	QUANT	-1.50000E-001	Final E (V)
STEPSIZE	QUANT	2.00000E+000	Step Size (mV)
TIMERRES	QUANT	3.33340E-005	&Timer Resolution
FREQUENCY	QUANT	2.00000E+002	Frequency (Hz)
PULSESIZE	QUANT	2.50000E+001	Pulse Size E (mV)
PULSEON	QUANT	5.00000E-003	Pulse &Time (s)
NOISEREJECT	TOGGLE	F	Noise Rejection
AREA	QUANT	2.00000E-002	Sample Area (cm^2)
IMODE	SELECTOR	1	I/E Range Mode
IRANGE	QUANT	1.00000E-002	Max Current (mA)
EQDELAY	IQUANT	10	Equil. Time (s)
IRCOMP	SELECTOR	0	IRComp
PFCOR	QUANT	5.00000E+001	PF Corr. (ohm)
CYCLES	IQUANT	101	C&ycles (#)
ELECTRODETYPE	SELECTOR	0	Electrode Type
STRIPPING	TOGGLE	F	Used for Stripping
POLARITY	TOGGLE	F	Signal Polarity
LINEFREQ	IQUANT	60	Line Frequency (Hz)
INTPERIOD	QUANT	3.3334E-005	Integration Period (s)
SEQUENCER	TOGGLE	TRUE	Run as Sequence
PSTATMODEL	IQUANT	4	Pstat Model
PSTATSECTION	LABEL	REF600-24079	Pstat Section
PSTATSERIALNO	LABEL	24079	Pstat Serial Number
CTRLMODE	IQUANT	1	Control Mode
ELECTROMETER	IQUANT	0	RE=0 or CS=1
IESTAB	IQUANT	2	I/E Stability
CASPEED	IQUANT	6	Control Amp Speed
CONVENTION	IQUANT	1	Current Convention
ICHRANGE	IQUANT	2	Ich Range
ICHRANGEMODE	TOGGLE	F	Ich Auto Range
ICHOFFSETENABLE	TOGGLE	F	Ich Offset Enable
ICHOFFSET	QUANT	0	Ich Offset (V)
ICHFILTER	IQUANT	2	Ich Filter
VCHRANGE	IQUANT	2	Vch Range
VCHRANGEMODE	TOGGLE	F	Vch Auto Range
VCHOFFSETENABLE	TOGGLE	F	Vch Offset Enable
VCHOFFSET	QUANT	0	Vch Offset (V)
VCHFILTER	IQUANT	1	Vch Filter
ACHRANGE	IQUANT	2	Ach Range
ACHOFFSETENABLE	TOGGLE	F	Ach Offset Enable
ACHOFFSET	QUANT	0	Ach Offset (V)
ACHFILTER	IQUANT	1	Ach Filter
IERANGELOWERLIMIT	IQUANT	1	I/E Range Lower Limit
IERANGEMODE	TOGGLE	F	I/E AutoRange
IERANGE	IQUANT	7	I/E Range
POSFEEDENABLE	TOGGLE	F	Positive Feedback IR Comp
POSFEEDRESISTANCE	QUANT	0	Positive Feedback Resistance (ohm)
ACHSELECT	IQUANT	0	Ach Select
SENSECABLEID	IQUANT	13	Sense Cable ID
PWRCABLEID	IQUANT	13	Power Cable ID
DCCALDATE	LABEL	6/30/2020	DC Calibration Date
ACCALDATE	LABEL	6/30/2020	AC Calibration Date
THERMOSELECT	IQUANT	1	Thermo Select
FRAMEWORKVERSION	LABEL	7.8.2	Framework Version
INSTRUMENTVERSION	LABEL	4.40	Instrument Version
CURVE	TABLE	101
	Pt	T	Vfwd	Vrev	Vstep	Ifwd	Irev	Idif	Sig	Ach	IERange	Over	Temp
	#	s	V	V	V	A	A	A	V	V	#	bits	deg C
	0	0.005	-3.27054E-001	-3.82621E-001	-3.54837E-001	9.53957E-011	-2.74034E-006	2.74044E-006	-3.75000E-001	4.46039E-004	7	..........a	-327.68
	1	0.01	-3.18814E-001	-3.81148E-001	-3.49981E-001	2.74514E-006	-2.86796E-006	5.61310E-006	-3.73000E-001	3.66039E-004	7	..........a	-327.68
	2	0.015	-3.16728E-001	-3.79194E-001	-3.47961E-001	2.78788E-006	-2.84309E-006	5.63097E-006	-3.71000E-001	3.46039E-004	7	..........a	-327.68
	3	0.02	-3.14751E-001	-3.77131E-001	-3.45941E-001	2.79734E-006	-2.82809E-006	5.62543E-006	-3.69000E-001	3.52706E-004	7	..........a	-327.68
	4	0.025	-3.12757E-001	-3.75221E-001	-3.43989E-001	2.80221E-006	-2.81589E-006	5.61810E-006	-3.67000E-001	3.82706E-004	7	..........a	-327.68
	5	0.03	-3.10721E-001	-3.73164E-001	-3.41942E-001	2.81115E-006	-2.81035E-006	5.62150E-006	-3.65000E-001	3.39373E-004	7	..........a	-327.68
	6	0.035	-3.08768E-001	-3.71201E-001	-3.39984E-001	2.80728E-006	-2.79915E-006	5.60643E-006	-3.63000E-001	3.39373E-004	7	..........a	-327.68
	7	0.04	-3.06794E-001	-3.69084E-001	-3.37939E-001	2.81054E-006	-2.79562E-006	5.60616E-006	-3.61000E-001	3.46039E-004	7	..........a	-327.68
	8	0.045	-3.04828E-001	-3.67187E-001	-3.36008E-001	2.81208E-006	-2.78962E-006	5.60170E-006	-3.59000E-001	3.82706E-004	7	..........a	-327.68
	9	0.05	-3.02768E-001	-3.65104E-001	-3.33936E-001	2.81768E-006	-2.78528E-006	5.60296E-006	-3.57000E-001	4.12706E-004	7	..........a	-327.68
	10	0.055	-3.00821E-001	-3.63201E-001	-3.32011E-001	2.81468E-006	-2.77662E-006	5.59130E-006	-3.55000E-001	3.46039E-004	7	..........a	-327.68
	11	0.06	-2.98801E-001	-3.61181E-001	-3.29991E-001	2.81655E-006	-2.77588E-006	5.59243E-006	-3.53000E-001	3.46039E-004	7	..........a	-327.68
	12	0.065	-2.96751E-001	-3.59171E-001	-3.27961E-001	2.81841E-006	-2.77102E-006	5.58943E-006	-3.51000E-001	3.46039E-004	7	..........a	-327.68
	13	0.07	-2.94794E-001	-3.57151E-001	-3.25972E-001	2.81481E-006	-2.77042E-006	5.58523E-006	-3.49000E-001	3.19373E-004	7	..........a	-327.68
	14	0.075	-2.92807E-001	-3.55174E-001	-3.23991E-001	2.81855E-006	-2.76408E-006	5.58263E-006	-3.47000E-001	3.99373E-004	7	..........a	-327.68
	15	0.08	-2.90794E-001	-3.53148E-001	-3.21971E-001	2.81981E-006	-2.76355E-006	5.58336E-006	-3.45000E-001	3.52706E-004	7	..........a	-327.68
	16	0.085	-2.88821E-001	-3.51194E-001	-3.20008E-001	2.81895E-006	-2.76055E-006	5.57949E-006	-3.43000E-001	3.49373E-004	7	..........a	-327.68
	17	0.09	-2.86721E-001	-3.49174E-001	-3.17948E-001	2.82408E-006	-2.75875E-006	5.58283E-006	-3.41000E-001	3.89373E-004	7	..........a	-327.68
	18	0.095	-2.84768E-001	-3.47191E-001	-3.15979E-001	2.82488E-006	-2.75761E-006	5.58249E-006	-3.39000E-001	3.42706E-004	7	..........a	-327.68
	19	0.1	-2.82784E-001	-3.45111E-001	-3.13948E-001	2.82621E-006	-2.75001E-006	5.57623E-006	-3.37000E-001	3.22706E-004	7	..........a	-327.68
	20	0.105	-2.80874E-001	-3.43237E-001	-3.12056E-001	2.82895E-006	-2.75341E-006	5.58236E-006	-3.35000E-001	3.49373E-004	7	..........a	-327.68
	21	0.11	-2.78741E-001	-3.41144E-001	-3.09943E-001	2.83121E-006	-2.75208E-006	5.58329E-006	-3.33000E-001	3.52706E-004	7	..........a	-327.68
	22	0.115	-2.76808E-001	-3.39141E-001	-3.07974E-001	2.83468E-006	-2.75075E-006	5.58543E-006	-3.31000E-001	3.66039E-004	7	..........a	-327.68
	23	0.12	-2.74804E-001	-3.37128E-001	-3.05966E-001	2.83982E-006	-2.75121E-006	5.59103E-006	-3.29000E-001	3.39373E-004	7	..........a	-327.68
	24	0.125	-2.72801E-001	-3.35134E-001	-3.03968E-001	2.84248E-006	-2.74841E-006	5.59090E-006	-3.27000E-001	3.66039E-004	7	..........a	-327.68
	25	0.13	-2.70768E-001	-3.33144E-001	-3.01956E-001	2.84248E-006	-2.74741E-006	5.58990E-006	-3.25000E-001	3.32706E-004	7	..........a	-327.68
	26	0.135	-2.68784E-001	-3.31178E-001	-2.99981E-001	2.84622E-006	-2.74941E-006	5.59563E-006	-3.23000E-001	3.42706E-004	7	..........a	-327.68
	27	0.14	-2.66828E-001	-3.29124E-001	-2.97976E-001	2.84868E-006	-2.74661E-006	5.59530E-006	-3.21000E-001	3.96039E-004	7	..........a	-327.68
	28	0.145	-2.64848E-001	-3.27184E-001	-2.96016E-001	2.85788E-006	-2.74995E-006	5.60783E-006	-3.19000E-001	3.36039E-004	7	..........a	-327.68
	29	0.15	-2.62734E-001	-3.25134E-001	-2.93934E-001	2.85735E-006	-2.75008E-006	5.60743E-006	-3.17000E-001	3.76039E-004	7	..........a	-327.68
	30	0.155	-2.60774E-001	-3.23141E-001	-2.91958E-001	2.86362E-006	-2.74701E-006	5.61063E-006	-3.15000E-001	3.86039E-004	7	..........a	-327.68
	31	0.16	-2.58848E-001	-3.21158E-001	-2.90003E-001	2.86709E-006	-2.75388E-006	5.62097E-006	-3.13000E-001	3.86039E-004	7	..........a	-327.68
	32	0.165	-2.56821E-001	-3.19228E-001	-2.88024E-001	2.87355E-006	-2.75195E-006	5.62550E-006	-3.11000E-001	3.89373E-004	7	..........a	-327.68
	33	0.17	-2.54828E-001	-3.17134E-001	-2.85981E-001	2.87475E-006	-2.75961E-006	5.63437E-006	-3.09000E-001	3.96039E-004	7	..........a	-327.68
	34	0.175	-2.52811E-001	-3.15124E-001	-2.83968E-001	2.88302E-006	-2.75588E-006	5.63890E-006	-3.07000E-001	3.76039E-004	7	..........a	-327.68
	35	0.18	-2.50828E-001	-3.13144E-001	-2.81986E-001	2.89029E-006	-2.76141E-006	5.65170E-006	-3.05000E-001	3.96039E-004	7	..........a	-327.68
	36	0.185	-2.48808E-001	-3.11168E-001	-2.79988E-001	2.88876E-006	-2.75908E-006	5.64784E-006	-3.03000E-001	3.99373E-004	7	..........a	-327.68
	37	0.19	-2.46844E-001	-3.09124E-001	-2.77984E-001	2.89709E-006	-2.76175E-006	5.65884E-006	-3.01000E-001	3.59373E-004	7	..........a	-327.68
	38	0.195	-2.44818E-001	-3.07204E-001	-2.76011E-001	2.89569E-006	-2.76335E-006	5.65904E-006	-2.99000E-001	3.99373E-004	7	..........a	-327.68
	39	0.2	-2.42891E-001	-3.05057E-001	-2.73974E-001	2.90409E-006	-2.76408E-006	5.66817E-006	-2.97000E-001	3.49373E-004	7	..........a	-327.68
	40	0.205	-2.40844E-001	-3.03194E-001	-2.72019E-001	2.90636E-006	-2.76615E-006	5.67251E-006	-2.95000E-001	3.02706E-004	7	..........a	-327.68
	41	0.21	-2.38844E-001	-3.01191E-001	-2.70018E-001	2.90929E-006	-2.76788E-006	5.67717E-006	-2.93000E-001	3.76039E-004	7	..........a	-327.68
	42	0.215	-2.36828E-001	-2.99161E-001	-2.67994E-001	2.91336E-006	-2.77108E-006	5.68444E-006	-2.91000E-001	3.86039E-004	7	..........a	-327.68
	43	0.22	-2.34894E-001	-2.97157E-001	-2.66026E-001	2.91343E-006	-2.76681E-006	5.68024E-006	-2.89000E-001	3.99373E-004	7	..........a	-327.68
	44	0.225	-2.32844E-001	-2.95111E-001	-2.63978E-001	2.91856E-006	-2.76888E-006	5.68744E-006	-2.87000E-001	3.72706E-004	7	..........a	-327.68
	45	0.23	-2.30808E-001	-2.93081E-001	-2.61944E-001	2.92176E-006	-2.76481E-006	5.68657E-006	-2.85000E-001	3.79373E-004	7	..........a	-327.68
	46	0.235	-2.28858E-001	-2.91138E-001	-2.59998E-001	2.91936E-006	-2.76862E-006	5.68797E-006	-2.83000E-001	3.42706E-004	7	..........a	-327.68
	47	0.24	-2.26874E-001	-2.89048E-001	-2.57961E-001	2.92296E-006	-2.76455E-006	5.68751E-006	-2.81000E-001	3.69373E-004	7	..........a	-327.68
	48	0.245	-2.24881E-001	-2.87161E-001	-2.56021E-001	2.92296E-006	-2.76588E-006	5.68884E-006	-2.79000E-001	3.32706E-004	7	..........a	-327.68
	49	0.25	-2.22834E-001	-2.85118E-001	-2.53976E-001	2.92123E-006	-2.76308E-006	5.68431E-006	-2.77000E-001	3.76039E-004	7	..........a	-327.68
	50	0.255	-2.20851E-001	-2.83118E-001	-2.51984E-001	2.92229E-006	-2.76095E-006	5.68324E-006	-2.75000E-001	3.76039E-004	7	..........a	-327.68
	51	0.26	-2.18801E-001	-2.81141E-001	-2.49971E-001	2.91843E-006	-2.76208E-006	5.68051E-006	-2.73000E-001	3.66039E-004	7	..........a	-327.68
	52	0.265	-2.16861E-001	-2.79148E-001	-2.48004E-001	2.91636E-006	-2.75428E-006	5.67064E-006	-2.71000E-001	3.99373E-004	7	..........a	-327.68
	53	0.27	-2.14848E-001	-2.77158E-001	-2.46003E-001	2.91476E-006	-2.75328E-006	5.66804E-006	-2.69000E-001	4.02706E-004	7	..........a	-327.68
	54	0.275	-2.12861E-001	-2.75174E-001	-2.44018E-001	2.91416E-006	-2.75081E-006	5.66497E-006	-2.67000E-001	3.79373E-004	7	..........a	-327.68
	55	0.28	-2.10838E-001	-2.73148E-001	-2.41993E-001	2.90929E-006	-2.74588E-006	5.65517E-006	-2.65000E-001	3.76039E-004	7	..........a	-327.68
	56	0.285	-2.08828E-001	-2.71071E-001	-2.39949E-001	2.90449E-006	-2.74274E-006	5.64724E-006	-2.63000E-001	3.96039E-004	7	..........a	-327.68
	57	0.29	-2.06858E-001	-2.69078E-001	-2.37968E-001	2.90509E-006	-2.73561E-006	5.64070E-006	-2.61000E-001	3.59373E-004	7	..........a	-327.68
	58	0.295	-2.04868E-001	-2.67104E-001	-2.35986E-001	2.89822E-006	-2.73288E-006	5.63110E-006	-2.59000E-001	3.29373E-004	7	..........a	-327.68
	59	0.3	-2.02841E-001	-2.65061E-001	-2.33951E-001	2.89109E-006	-2.72941E-006	5.62050E-006	-2.57000E-001	3.89373E-004	7	..........a	-327.68
	60	0.305	-2.00844E-001	-2.63088E-001	-2.31966E-001	2.88916E-006	-2.72341E-006	5.61257E-006	-2.55000E-001	3.59373E-004	7	..........a	-327.68
	61	0.31	-1.98854E-001	-2.61091E-001	-2.29973E-001	2.88269E-006	-2.71981E-006	5.60250E-006	-2.53000E-001	3.69373E-004	7	..........a	-327.68
	62	0.315	-1.96824E-001	-2.59101E-001	-2.27963E-001	2.88129E-006	-2.71254E-006	5.59383E-006	-2.51000E-001	4.09373E-004	7	..........a	-327.68
	63	0.32	-1.94848E-001	-2.57068E-001	-2.25958E-001	2.87535E-006	-2.70974E-006	5.58509E-006	-2.49000E-001	3.92706E-004	7	..........a	-327.68
	64	0.325	-1.92828E-001	-2.55141E-001	-2.23984E-001	2.87029E-006	-2.70194E-006	5.57223E-006	-2.47000E-001	3.49373E-004	7	..........a	-327.68
	65	0.33	-1.90828E-001	-2.53061E-001	-2.21944E-001	2.86589E-006	-2.69894E-006	5.56483E-006	-2.45000E-001	3.79373E-004	7	..........a	-327.68
	66	0.335	-1.88828E-001	-2.51104E-001	-2.19966E-001	2.85995E-006	-2.69447E-006	5.55442E-006	-2.43000E-001	3.39373E-004	7	..........a	-327.68
	67	0.34	-1.86908E-001	-2.49078E-001	-2.17993E-001	2.85802E-006	-2.68647E-006	5.54449E-006	-2.41000E-001	3.59373E-004	7	..........a	-327.68
	68	0.345	-1.84874E-001	-2.47068E-001	-2.15971E-001	2.84822E-006	-2.68160E-006	5.52982E-006	-2.39000E-001	3.62706E-004	7	..........a	-327.68
	69	0.35	-1.82781E-001	-2.45074E-001	-2.13928E-001	2.84648E-006	-2.67747E-006	5.52395E-006	-2.37000E-001	3.49373E-004	7	..........a	-327.68
	70	0.355	-1.80874E-001	-2.43054E-001	-2.11964E-001	2.84088E-006	-2.67347E-006	5.51435E-006	-2.35000E-001	3.59373E-004	7	..........a	-327.68
	71	0.36	-1.78874E-001	-2.41028E-001	-2.09951E-001	2.83735E-006	-2.66900E-006	5.50635E-006	-2.33000E-001	3.39373E-004	7	..........a	-327.68
	72	0.365	-1.76844E-001	-2.39071E-001	-2.07958E-001	2.83101E-006	-2.66207E-006	5.49308E-006	-2.31000E-001	3.82706E-004	7	..........a	-327.68
	73	0.37	-1.74808E-001	-2.37094E-001	-2.05951E-001	2.83075E-006	-2.65887E-006	5.48961E-006	-2.29000E-001	4.12706E-004	7	..........a	-327.68
	74	0.375	-1.72841E-001	-2.35101E-001	-2.03971E-001	2.82541E-006	-2.65667E-006	5.48208E-006	-2.27000E-001	4.22706E-004	7	..........a	-327.68
	75	0.38	-1.70864E-001	-2.33054E-001	-2.01959E-001	2.82128E-006	-2.64940E-006	5.47068E-006	-2.25000E-001	3.56039E-004	7	..........a	-327.68
	76	0.385	-1.68844E-001	-2.31071E-001	-1.99958E-001	2.81868E-006	-2.65000E-006	5.46868E-006	-2.23000E-001	3.56039E-004	7	..........a	-327.68
	77	0.39	-1.66824E-001	-2.29091E-001	-1.97958E-001	2.81688E-006	-2.64407E-006	5.46094E-006	-2.21000E-001	3.66039E-004	7	..........a	-327.68
	78	0.395	-1.64788E-001	-2.27041E-001	-1.95914E-001	2.81308E-006	-2.64093E-006	5.45401E-006	-2.19000E-001	3.86039E-004	7	..........a	-327.68
	79	0.4	-1.62794E-001	-2.25058E-001	-1.93926E-001	2.80548E-006	-2.63680E-006	5.44227E-006	-2.17000E-001	3.79373E-004	7	..........a	-327.68
	80	0.405	-1.60811E-001	-2.23081E-001	-1.91946E-001	2.81108E-006	-2.63233E-006	5.44341E-006	-2.15000E-001	3.69373E-004	7	..........a	-327.68
	81	0.41	-1.58814E-001	-2.21058E-001	-1.89936E-001	2.80154E-006	-2.63193E-006	5.43347E-006	-2.13000E-001	4.26039E-004	7	..........a	-327.68
	82	0.415	-1.56831E-001	-2.19108E-001	-1.87969E-001	2.80394E-006	-2.62866E-006	5.43261E-006	-2.11000E-001	3.52706E-004	7	..........a	-327.68
	83	0.42	-1.54841E-001	-2.17084E-001	-1.85963E-001	2.79894E-006	-2.62520E-006	5.42414E-006	-2.09000E-001	3.72706E-004	7	..........a	-327.68
	84	0.425	-1.52858E-001	-2.15111E-001	-1.83984E-001	2.79814E-006	-2.62200E-006	5.42014E-006	-2.07000E-001	3.76039E-004	7	..........a	-327.68
	85	0.43	-1.50834E-001	-2.13054E-001	-1.81944E-001	2.79574E-006	-2.62120E-006	5.41694E-006	-2.05000E-001	3.59373E-004	7	..........a	-327.68
	86	0.435	-1.48848E-001	-2.10998E-001	-1.79923E-001	2.79968E-006	-2.61659E-006	5.41627E-006	-2.03000E-001	3.79373E-004	7	..........a	-327.68
	87	0.44	-1.46854E-001	-2.09058E-001	-1.77956E-001	2.79781E-006	-2.61826E-006	5.41607E-006	-2.01000E-001	3.69373E-004	7	..........a	-327.68
	88	0.445	-1.44844E-001	-2.07131E-001	-1.75988E-001	2.79374E-006	-2.61286E-006	5.40660E-006	-1.99000E-001	3.29373E-004	7	..........a	-327.68
	89	0.45	-1.42848E-001	-2.05048E-001	-1.73948E-001	2.79288E-006	-2.61439E-006	5.40727E-006	-1.97000E-001	3.72706E-004	7	..........a	-327.68
	90	0.455	-1.40844E-001	-2.03054E-001	-1.71949E-001	2.79148E-006	-2.60959E-006	5.40107E-006	-1.95000E-001	3.86039E-004	7	..........a	-327.68
	91	0.46	-1.38874E-001	-2.01114E-001	-1.69994E-001	2.79488E-006	-2.61339E-006	5.40827E-006	-1.93000E-001	3.79373E-004	7	..........a	-327.68
	92	0.465	-1.36838E-001	-1.99154E-001	-1.67996E-001	2.79154E-006	-2.61093E-006	5.40247E-006	-1.91000E-001	3.09373E-004	7	..........a	-327.68
	93	0.47	-1.34798E-001	-1.97084E-001	-1.65941E-001	2.79328E-006	-2.60953E-006	5.40280E-006	-1.89000E-001	3.72706E-004	7	..........a	-327.68
	94	0.475	-1.32861E-001	-1.95131E-001	-1.63996E-001	2.79268E-006	-2.60899E-006	5.40167E-006	-1.87000E-001	3.49373E-004	7	..........a	-327.68
	95	0.48	-1.30834E-001	-1.93091E-001	-1.61963E-001	2.79481E-006	-2.60593E-006	5.40074E-006	-1.85000E-001	3.69373E-004	7	..........a	-327.68
	96	0.485	-1.28834E-001	-1.91094E-001	-1.59964E-001	2.79561E-006	-2.60866E-006	5.40427E-006	-1.83000E-001	3.16039E-004	7	..........a	-327.68
	97	0.49	-1.26831E-001	-1.89114E-001	-1.57973E-001	2.79641E-006	-2.60593E-006	5.40234E-006	-1.81000E-001	3.39373E-004	7	..........a	-327.68
	98	0.495	-1.24828E-001	-1.87068E-001	-1.55948E-001	2.79641E-006	-2.60679E-006	5.40320E-006	-1.79000E-001	3.62706E-004	7	..........a	-327.68
	99	0.5	-1.22848E-001	-1.85064E-001	-1.53956E-001	2.79754E-006	-2.60626E-006	5.40380E-006	-1.77000E-001	3.82706E-004	7	..........a	-327.68
	100	0.505	-1.20838E-001	-1.83108E-001	-1.51973E-001	2.80014E-006	-2.60346E-006	5.40360E-006	-1.75000E-001	3.69373E-004	7	..........a	-327.68
