EXPLAIN
TAG	SQUARE_WAVE
TITLE	LABEL	Square Wave Voltammetry	Test Identifier
DATE	LABEL	8/10/2020	Date
TIME	LABEL	19:02:41	Time
NOTES	NOTES	1	Notes...
	 STD1 50 fgml  08102
PSTAT	PSTAT	REF600-24079	Potentiostat
VINIT	QUANT	-3.50000E-001	Initial E (V)
VFINAL	QUANT	-1.50000E-001	Final E (V)
STEPSIZE	QUANT	2.00000E+000	Step Size (mV)
TIMERRES	QUANT	3.33340E-005	&Timer Resolution
FREQUENCY	QUANT	1.00000E+001	Frequency (Hz)
PULSESIZE	QUANT	2.50000E+001	Pulse Size E (mV)
PULSEON	QUANT	1.00000E-001	Pulse &Time (s)
NOISEREJECT	TOGGLE	F	Noise Rejection
AREA	QUANT	2.00000E-002	Sample Area (cm^2)
IMODE	SELECTOR	1	I/E Range Mode
IRANGE	QUANT	1.00000E-003	Max Current (mA)
EQDELAY	IQUANT	10	Equil. Time (s)
IRCOMP	SELECTOR	0	IRComp
PFCOR	QUANT	5.00000E+001	PF Corr. (ohm)
CYCLES	IQUANT	101	C&ycles (#)
ELECTRODETYPE	SELECTOR	0	Electrode Type
STRIPPING	TOGGLE	F	Used for Stripping
POLARITY	TOGGLE	F	Signal Polarity
LINEFREQ	IQUANT	60	Line Frequency (Hz)
INTPERIOD	QUANT	3.3334E-005	Integration Period (s)
SEQUENCER	TOGGLE	TRUE	Run as Sequence
PSTATMODEL	IQUANT	4	Pstat Model
PSTATSECTION	LABEL	REF600-24079	Pstat Section
PSTATSERIALNO	LABEL	24079	Pstat Serial Number
CTRLMODE	IQUANT	1	Control Mode
ELECTROMETER	IQUANT	0	RE=0 or CS=1
IESTAB	IQUANT	2	I/E Stability
CASPEED	IQUANT	6	Control Amp Speed
CONVENTION	IQUANT	1	Current Convention
ICHRANGE	IQUANT	2	Ich Range
ICHRANGEMODE	TOGGLE	F	Ich Auto Range
ICHOFFSETENABLE	TOGGLE	F	Ich Offset Enable
ICHOFFSET	QUANT	0	Ich Offset (V)
ICHFILTER	IQUANT	2	Ich Filter
VCHRANGE	IQUANT	2	Vch Range
VCHRANGEMODE	TOGGLE	F	Vch Auto Range
VCHOFFSETENABLE	TOGGLE	F	Vch Offset Enable
VCHOFFSET	QUANT	0	Vch Offset (V)
VCHFILTER	IQUANT	2	Vch Filter
ACHRANGE	IQUANT	2	Ach Range
ACHOFFSETENABLE	TOGGLE	F	Ach Offset Enable
ACHOFFSET	QUANT	0	Ach Offset (V)
ACHFILTER	IQUANT	1	Ach Filter
IERANGELOWERLIMIT	IQUANT	1	I/E Range Lower Limit
IERANGEMODE	TOGGLE	F	I/E AutoRange
IERANGE	IQUANT	6	I/E Range
POSFEEDENABLE	TOGGLE	F	Positive Feedback IR Comp
POSFEEDRESISTANCE	QUANT	0	Positive Feedback Resistance (ohm)
ACHSELECT	IQUANT	0	Ach Select
SENSECABLEID	IQUANT	13	Sense Cable ID
PWRCABLEID	IQUANT	13	Power Cable ID
DCCALDATE	LABEL	6/30/2020	DC Calibration Date
ACCALDATE	LABEL	6/30/2020	AC Calibration Date
THERMOSELECT	IQUANT	1	Thermo Select
FRAMEWORKVERSION	LABEL	7.8.2	Framework Version
INSTRUMENTVERSION	LABEL	4.40	Instrument Version
CURVE	TABLE	101
	Pt	T	Vfwd	Vrev	Vstep	Ifwd	Irev	Idif	Sig	Ach	IERange	Over	Temp
	#	s	V	V	V	A	A	A	V	V	#	bits	deg C
	0	0.1	-3.24965E-001	-3.74951E-001	-3.49958E-001	-1.57327E-007	-3.02811E-007	1.45483E-007	-3.75000E-001	4.22039E-004	6	..........a	-327.68
	1	0.2	-3.22922E-001	-3.72993E-001	-3.47957E-001	-1.42429E-007	-2.92369E-007	1.49940E-007	-3.73000E-001	4.13039E-004	6	..........a	-327.68
	2	0.3	-3.20973E-001	-3.70837E-001	-3.45905E-001	-1.37085E-007	-2.84832E-007	1.47747E-007	-3.71000E-001	4.07039E-004	6	..........a	-327.68
	3	0.4	-3.18908E-001	-3.69113E-001	-3.44010E-001	-1.32725E-007	-2.78300E-007	1.45576E-007	-3.69000E-001	4.17706E-004	6	..........a	-327.68
	4	0.5	-3.17006E-001	-3.66895E-001	-3.41950E-001	-1.28847E-007	-2.71942E-007	1.43096E-007	-3.67000E-001	4.25206E-004	6	..........a	-327.68
	5	0.6	-3.14916E-001	-3.65005E-001	-3.39961E-001	-1.25272E-007	-2.65875E-007	1.40604E-007	-3.65000E-001	4.26373E-004	6	..........a	-327.68
	6	0.7	-3.12994E-001	-3.62866E-001	-3.37930E-001	-1.21468E-007	-2.59695E-007	1.38227E-007	-3.63000E-001	4.28873E-004	6	..........a	-327.68
	7	0.8	-3.10894E-001	-3.61046E-001	-3.35970E-001	-1.17875E-007	-2.54156E-007	1.36281E-007	-3.61000E-001	4.24206E-004	6	..........a	-327.68
	8	0.9	-3.08982E-001	-3.58903E-001	-3.33942E-001	-1.14613E-007	-2.48364E-007	1.33750E-007	-3.59000E-001	4.13373E-004	6	..........a	-327.68
	9	1	-3.06908E-001	-3.56982E-001	-3.31945E-001	-1.11214E-007	-2.43168E-007	1.31954E-007	-3.57000E-001	4.15539E-004	6	..........a	-327.68
	10	1.1	-3.05037E-001	-3.54903E-001	-3.29970E-001	-1.08001E-007	-2.37881E-007	1.29880E-007	-3.55000E-001	4.13206E-004	6	..........a	-327.68
	11	1.2	-3.02931E-001	-3.53009E-001	-3.27970E-001	-1.04824E-007	-2.32636E-007	1.27813E-007	-3.53000E-001	4.13039E-004	6	..........a	-327.68
	12	1.3	-3.01017E-001	-3.50939E-001	-3.25978E-001	-1.01468E-007	-2.27670E-007	1.26202E-007	-3.51000E-001	4.25206E-004	6	..........a	-327.68
	13	1.4	-2.98941E-001	-3.48989E-001	-3.23965E-001	-9.85423E-008	-2.22452E-007	1.23910E-007	-3.49000E-001	4.17039E-004	6	..........a	-327.68
	14	1.5	-2.96993E-001	-3.46926E-001	-3.21959E-001	-9.56599E-008	-2.17732E-007	1.22073E-007	-3.47000E-001	4.22706E-004	6	..........a	-327.68
	15	1.6	-2.94942E-001	-3.45114E-001	-3.20028E-001	-9.27899E-008	-2.13064E-007	1.20274E-007	-3.45000E-001	4.24873E-004	6	..........a	-327.68
	16	1.7	-2.92894E-001	-3.42893E-001	-3.17894E-001	-8.96875E-008	-2.08337E-007	1.18649E-007	-3.43000E-001	4.21873E-004	6	..........a	-327.68
	17	1.8	-2.90851E-001	-3.41022E-001	-3.15937E-001	-8.67655E-008	-2.03935E-007	1.17170E-007	-3.41000E-001	4.09206E-004	6	..........a	-327.68
	18	1.9	-2.89035E-001	-3.38892E-001	-3.13963E-001	-8.43318E-008	-1.99374E-007	1.15042E-007	-3.39000E-001	4.20539E-004	6	..........a	-327.68
	19	2	-2.86899E-001	-3.37046E-001	-3.11973E-001	-8.12641E-008	-1.95033E-007	1.13768E-007	-3.37000E-001	4.09539E-004	6	..........a	-327.68
	20	2.1	-2.85023E-001	-3.34947E-001	-3.09985E-001	-7.87941E-008	-1.90588E-007	1.11794E-007	-3.35000E-001	4.18873E-004	6	..........a	-327.68
	21	2.2	-2.82886E-001	-3.33016E-001	-3.07951E-001	-7.62298E-008	-1.86583E-007	1.10354E-007	-3.33000E-001	4.15706E-004	6	..........a	-327.68
	22	2.3	-2.81056E-001	-3.30900E-001	-3.05978E-001	-7.33974E-008	-1.82496E-007	1.09099E-007	-3.31000E-001	4.13539E-004	6	..........a	-327.68
	23	2.4	-2.78902E-001	-3.29033E-001	-3.03967E-001	-7.08641E-008	-1.78298E-007	1.07434E-007	-3.29000E-001	4.20039E-004	6	..........a	-327.68
	24	2.5	-2.76989E-001	-3.26935E-001	-3.01962E-001	-6.85165E-008	-1.74372E-007	1.05855E-007	-3.27000E-001	4.21039E-004	6	..........a	-327.68
	25	2.6	-2.74921E-001	-3.24978E-001	-2.99950E-001	-6.57748E-008	-1.70546E-007	1.04772E-007	-3.25000E-001	4.28373E-004	6	..........a	-327.68
	26	2.7	-2.72951E-001	-3.22919E-001	-2.97935E-001	-6.34262E-008	-1.66679E-007	1.03252E-007	-3.23000E-001	4.23706E-004	6	..........a	-327.68
	27	2.8	-2.70896E-001	-3.20948E-001	-2.95922E-001	-6.12659E-008	-1.63187E-007	1.01921E-007	-3.21000E-001	4.23039E-004	6	..........a	-327.68
	28	2.9	-2.68930E-001	-3.18872E-001	-2.93901E-001	-5.88772E-008	-1.59626E-007	1.00748E-007	-3.19000E-001	4.27373E-004	6	..........a	-327.68
	29	3	-2.66833E-001	-3.17029E-001	-2.91931E-001	-5.67770E-008	-1.55711E-007	9.89336E-008	-3.17000E-001	4.29206E-004	6	..........a	-327.68
	30	3.1	-2.65062E-001	-3.14940E-001	-2.90001E-001	-5.45027E-008	-1.52496E-007	9.79935E-008	-3.15000E-001	4.16373E-004	6	..........a	-327.68
	31	3.2	-2.62890E-001	-3.13028E-001	-2.87959E-001	-5.24521E-008	-1.48998E-007	9.65460E-008	-3.13000E-001	4.20206E-004	6	..........a	-327.68
	32	3.3	-2.61006E-001	-3.10916E-001	-2.85961E-001	-5.00551E-008	-1.45835E-007	9.57799E-008	-3.11000E-001	4.22039E-004	6	..........a	-327.68
	33	3.4	-2.58891E-001	-3.08980E-001	-2.83936E-001	-4.82416E-008	-1.42512E-007	9.42706E-008	-3.09000E-001	4.15373E-004	6	..........a	-327.68
	34	3.5	-2.57014E-001	-3.06906E-001	-2.81960E-001	-4.63707E-008	-1.39347E-007	9.29765E-008	-3.07000E-001	4.11039E-004	6	..........a	-327.68
	35	3.6	-2.54919E-001	-3.05031E-001	-2.79975E-001	-4.42164E-008	-1.36319E-007	9.21031E-008	-3.05000E-001	4.06873E-004	6	..........a	-327.68
	36	3.7	-2.52982E-001	-3.02959E-001	-2.77970E-001	-4.22271E-008	-1.33281E-007	9.10542E-008	-3.03000E-001	4.14539E-004	6	..........a	-327.68
	37	3.8	-2.50916E-001	-3.01015E-001	-2.75966E-001	-4.04976E-008	-1.30456E-007	8.99581E-008	-3.01000E-001	4.16539E-004	6	..........a	-327.68
	38	3.9	-2.48995E-001	-2.98933E-001	-2.73964E-001	-3.85230E-008	-1.27453E-007	8.89303E-008	-2.99000E-001	4.22373E-004	6	..........a	-327.68
	39	4	-2.46939E-001	-2.96999E-001	-2.71969E-001	-3.67484E-008	-1.24658E-007	8.79095E-008	-2.97000E-001	4.16873E-004	6	..........a	-327.68
	40	4.1	-2.44963E-001	-2.94922E-001	-2.69942E-001	-3.49829E-008	-1.22020E-007	8.70371E-008	-2.95000E-001	4.21706E-004	6	..........a	-327.68
	41	4.2	-2.42828E-001	-2.93005E-001	-2.67917E-001	-3.31213E-008	-1.19259E-007	8.61376E-008	-2.93000E-001	4.28706E-004	6	..........a	-327.68
	42	4.3	-2.41076E-001	-2.90850E-001	-2.65963E-001	-3.14651E-008	-1.16653E-007	8.51882E-008	-2.91000E-001	4.21873E-004	6	..........a	-327.68
	43	4.4	-2.38914E-001	-2.89030E-001	-2.63972E-001	-3.00052E-008	-1.14129E-007	8.41237E-008	-2.89000E-001	4.29873E-004	6	..........a	-327.68
	44	4.5	-2.36958E-001	-2.86907E-001	-2.61932E-001	-2.85054E-008	-1.11543E-007	8.30372E-008	-2.87000E-001	4.18373E-004	6	..........a	-327.68
	45	4.6	-2.34872E-001	-2.85024E-001	-2.59948E-001	-2.68775E-008	-1.09044E-007	8.21665E-008	-2.85000E-001	4.32706E-004	6	..........a	-327.68
	46	4.7	-2.33016E-001	-2.82892E-001	-2.57954E-001	-2.54727E-008	-1.06597E-007	8.11247E-008	-2.83000E-001	4.24206E-004	6	..........a	-327.68
	47	4.8	-2.30911E-001	-2.81055E-001	-2.55983E-001	-2.38998E-008	-1.04109E-007	8.02089E-008	-2.81000E-001	4.36206E-004	6	..........a	-327.68
	48	4.9	-2.29015E-001	-2.78938E-001	-2.53976E-001	-2.25723E-008	-1.02051E-007	7.94791E-008	-2.79000E-001	4.28873E-004	6	..........a	-327.68
	49	5	-2.26894E-001	-2.77032E-001	-2.51963E-001	-2.12151E-008	-9.96738E-008	7.84586E-008	-2.77000E-001	4.22373E-004	6	..........a	-327.68
	50	5.1	-2.24999E-001	-2.74936E-001	-2.49968E-001	-1.99016E-008	-9.74602E-008	7.75585E-008	-2.75000E-001	4.23706E-004	6	..........a	-327.68
	51	5.2	-2.22927E-001	-2.72997E-001	-2.47962E-001	-1.84428E-008	-9.52402E-008	7.67974E-008	-2.73000E-001	4.22706E-004	6	..........a	-327.68
	52	5.3	-2.20976E-001	-2.70940E-001	-2.45958E-001	-1.71996E-008	-9.32766E-008	7.60770E-008	-2.71000E-001	4.34206E-004	6	..........a	-327.68
	53	5.4	-2.18913E-001	-2.68994E-001	-2.43954E-001	-1.60431E-008	-9.09637E-008	7.49205E-008	-2.69000E-001	4.24206E-004	6	..........a	-327.68
	54	5.5	-2.17108E-001	-2.66831E-001	-2.41969E-001	-1.47360E-008	-8.90344E-008	7.42984E-008	-2.67000E-001	4.22873E-004	6	..........a	-327.68
	55	5.6	-2.14889E-001	-2.65068E-001	-2.39978E-001	-1.35445E-008	-8.68525E-008	7.33080E-008	-2.65000E-001	4.21539E-004	6	..........a	-327.68
	56	5.7	-2.12964E-001	-2.62940E-001	-2.37952E-001	-1.24583E-008	-8.49859E-008	7.25276E-008	-2.63000E-001	4.24039E-004	6	..........a	-327.68
	57	5.8	-2.10871E-001	-2.61002E-001	-2.35936E-001	-1.11595E-008	-8.31303E-008	7.19708E-008	-2.61000E-001	4.31373E-004	6	..........a	-327.68
	58	5.9	-2.09009E-001	-2.58883E-001	-2.33946E-001	-1.00554E-008	-8.11921E-008	7.11367E-008	-2.59000E-001	4.26706E-004	6	..........a	-327.68
	59	6	-2.06905E-001	-2.57008E-001	-2.31957E-001	-9.11358E-009	-7.92582E-008	7.01446E-008	-2.57000E-001	4.26039E-004	6	..........a	-327.68
	60	6.1	-2.04983E-001	-2.54926E-001	-2.29955E-001	-7.98577E-009	-7.74543E-008	6.94685E-008	-2.55000E-001	4.27873E-004	6	..........a	-327.68
	61	6.2	-2.02887E-001	-2.53020E-001	-2.27953E-001	-7.10599E-009	-7.57797E-008	6.86737E-008	-2.53000E-001	4.20706E-004	6	..........a	-327.68
	62	6.3	-2.01019E-001	-2.50923E-001	-2.25971E-001	-5.96684E-009	-7.40412E-008	6.80743E-008	-2.51000E-001	4.27206E-004	6	..........a	-327.68
	63	6.4	-1.98934E-001	-2.48986E-001	-2.23960E-001	-4.95071E-009	-7.25106E-008	6.75599E-008	-2.49000E-001	4.42539E-004	6	..........a	-327.68
	64	6.5	-1.96986E-001	-2.46911E-001	-2.21948E-001	-4.02493E-009	-7.07708E-008	6.67458E-008	-2.47000E-001	4.36373E-004	6	..........a	-327.68
	65	6.6	-1.94926E-001	-2.44953E-001	-2.19939E-001	-3.04814E-009	-6.92589E-008	6.62108E-008	-2.45000E-001	4.28373E-004	6	..........a	-327.68
	66	6.7	-1.92977E-001	-2.42845E-001	-2.17911E-001	-2.26470E-009	-6.76107E-008	6.53460E-008	-2.43000E-001	4.25206E-004	6	..........a	-327.68
	67	6.8	-1.90941E-001	-2.41101E-001	-2.16021E-001	-1.22991E-009	-6.62082E-008	6.49783E-008	-2.41000E-001	4.26539E-004	6	..........a	-327.68
	68	6.9	-1.89017E-001	-2.38885E-001	-2.13951E-001	-3.49128E-010	-6.46386E-008	6.42895E-008	-2.39000E-001	4.28873E-004	6	..........a	-327.68
	69	7	-1.86875E-001	-2.36928E-001	-2.11901E-001	3.90633E-010	-6.31358E-008	6.35264E-008	-2.37000E-001	4.23706E-004	6	..........a	-327.68
	70	7.1	-1.85035E-001	-2.34871E-001	-2.09953E-001	1.39409E-009	-6.15282E-008	6.29223E-008	-2.35000E-001	4.19539E-004	6	..........a	-327.68
	71	7.2	-1.82927E-001	-2.33010E-001	-2.07968E-001	2.02151E-009	-6.02754E-008	6.22969E-008	-2.33000E-001	4.26706E-004	6	..........a	-327.68
	72	7.3	-1.81022E-001	-2.30908E-001	-2.05965E-001	2.89962E-009	-5.89396E-008	6.18392E-008	-2.31000E-001	4.22706E-004	6	..........a	-327.68
	73	7.4	-1.78899E-001	-2.29004E-001	-2.03951E-001	3.47303E-009	-5.77694E-008	6.12425E-008	-2.29000E-001	4.18373E-004	6	..........a	-327.68
	74	7.5	-1.77029E-001	-2.26909E-001	-2.01969E-001	4.34347E-009	-5.61532E-008	6.04967E-008	-2.27000E-001	4.20539E-004	6	..........a	-327.68
	75	7.6	-1.74966E-001	-2.24981E-001	-1.99973E-001	5.07056E-009	-5.51018E-008	6.01723E-008	-2.25000E-001	4.22873E-004	6	..........a	-327.68
	76	7.7	-1.73033E-001	-2.22905E-001	-1.97969E-001	5.76132E-009	-5.37463E-008	5.95076E-008	-2.23000E-001	4.22039E-004	6	..........a	-327.68
	77	7.8	-1.70920E-001	-2.20972E-001	-1.95946E-001	6.39040E-009	-5.26184E-008	5.90088E-008	-2.21000E-001	4.23539E-004	6	..........a	-327.68
	78	7.9	-1.69002E-001	-2.18941E-001	-1.93972E-001	6.93747E-009	-5.13740E-008	5.83114E-008	-2.19000E-001	4.20706E-004	6	..........a	-327.68
	79	8	-1.66953E-001	-2.17102E-001	-1.92028E-001	7.76390E-009	-5.03052E-008	5.80691E-008	-2.17000E-001	4.10206E-004	6	..........a	-327.68
	80	8.1	-1.64846E-001	-2.14889E-001	-1.89867E-001	8.58501E-009	-4.93887E-008	5.79737E-008	-2.15000E-001	4.19539E-004	6	..........a	-327.68
	81	8.2	-1.62845E-001	-2.12986E-001	-1.87915E-001	9.28876E-009	-4.81895E-008	5.74783E-008	-2.13000E-001	4.22039E-004	6	..........a	-327.68
	82	8.3	-1.61001E-001	-2.10907E-001	-1.85954E-001	9.82217E-009	-4.73591E-008	5.71813E-008	-2.11000E-001	4.04706E-004	6	..........a	-327.68
	83	8.4	-1.58928E-001	-2.09026E-001	-1.83977E-001	1.02552E-008	-4.60846E-008	5.63398E-008	-2.09000E-001	4.13206E-004	6	..........a	-327.68
	84	8.5	-1.56976E-001	-2.06915E-001	-1.81945E-001	1.09360E-008	-4.50958E-008	5.60318E-008	-2.07000E-001	4.03706E-004	6	..........a	-327.68
	85	8.6	-1.54874E-001	-2.05015E-001	-1.79944E-001	1.14487E-008	-4.42997E-008	5.57484E-008	-2.05000E-001	4.04206E-004	6	..........a	-327.68
	86	8.7	-1.53056E-001	-2.02910E-001	-1.77983E-001	1.21315E-008	-4.35553E-008	5.56868E-008	-2.03000E-001	4.17539E-004	6	..........a	-327.68
	87	8.8	-1.50945E-001	-2.01045E-001	-1.75995E-001	1.26939E-008	-4.24285E-008	5.51223E-008	-2.01000E-001	4.11873E-004	6	..........a	-327.68
	88	8.9	-1.49021E-001	-1.98940E-001	-1.73981E-001	1.34103E-008	-4.15117E-008	5.49220E-008	-1.99000E-001	4.11873E-004	6	..........a	-327.68
	89	9	-1.46914E-001	-1.97010E-001	-1.71962E-001	1.39180E-008	-4.06849E-008	5.46029E-008	-1.97000E-001	4.00373E-004	6	..........a	-327.68
	90	9.1	-1.44998E-001	-1.94934E-001	-1.69966E-001	1.46358E-008	-3.96295E-008	5.42652E-008	-1.95000E-001	4.13373E-004	6	..........a	-327.68
	91	9.2	-1.42957E-001	-1.92994E-001	-1.67976E-001	1.48938E-008	-3.89667E-008	5.38605E-008	-1.93000E-001	4.03039E-004	6	..........a	-327.68
	92	9.3	-1.40999E-001	-1.90963E-001	-1.65981E-001	1.53989E-008	-3.83196E-008	5.37185E-008	-1.91000E-001	4.04039E-004	6	..........a	-327.68
	93	9.4	-1.38834E-001	-1.88994E-001	-1.63914E-001	1.60603E-008	-3.75749E-008	5.36352E-008	-1.89000E-001	4.04373E-004	6	..........a	-327.68
	94	9.5	-1.37072E-001	-1.86870E-001	-1.61971E-001	1.65584E-008	-3.67051E-008	5.32634E-008	-1.87000E-001	3.98373E-004	6	..........a	-327.68
	95	9.6	-1.34947E-001	-1.85033E-001	-1.59990E-001	1.70931E-008	-3.60773E-008	5.31704E-008	-1.85000E-001	4.00706E-004	6	..........a	-327.68
	96	9.7	-1.32994E-001	-1.82944E-001	-1.57969E-001	1.77342E-008	-3.52886E-008	5.30227E-008	-1.83000E-001	4.04206E-004	6	..........a	-327.68
	97	9.8	-1.30874E-001	-1.81014E-001	-1.55944E-001	1.80412E-008	-3.45892E-008	5.26304E-008	-1.81000E-001	4.17206E-004	6	..........a	-327.68
	98	9.9	-1.29017E-001	-1.78889E-001	-1.53953E-001	1.84703E-008	-3.38474E-008	5.23177E-008	-1.79000E-001	4.04373E-004	6	..........a	-327.68
	99	10	-1.26947E-001	-1.77027E-001	-1.51987E-001	1.88927E-008	-3.32910E-008	5.21836E-008	-1.77000E-001	4.10373E-004	6	..........a	-327.68
	100	10.1	-1.25017E-001	-1.74958E-001	-1.49988E-001	1.92570E-008	-3.25386E-008	5.17956E-008	-1.75000E-001	4.10539E-004	6	..........a	-327.68
