EXPLAIN
TAG	SQUARE_WAVE
TITLE	LABEL	Square Wave Voltammetry	Test Identifier
DATE	LABEL	8/10/2020	Date
TIME	LABEL	16:22:40	Time
NOTES	NOTES	1	Notes...
	
PSTAT	PSTAT	REF600-24079	Potentiostat
VINIT	QUANT	-3.50000E-001	Initial E (V)
VFINAL	QUANT	-1.50000E-001	Final E (V)
STEPSIZE	QUANT	2.00000E+000	Step Size (mV)
TIMERRES	QUANT	3.33340E-005	&Timer Resolution
FREQUENCY	QUANT	2.50000E+001	Frequency (Hz)
PULSESIZE	QUANT	2.50000E+001	Pulse Size E (mV)
PULSEON	QUANT	4.00000E-002	Pulse &Time (s)
NOISEREJECT	TOGGLE	F	Noise Rejection
AREA	QUANT	2.00000E-002	Sample Area (cm^2)
IMODE	SELECTOR	1	I/E Range Mode
IRANGE	QUANT	1.00000E-003	Max Current (mA)
EQDELAY	IQUANT	10	Equil. Time (s)
IRCOMP	SELECTOR	0	IRComp
PFCOR	QUANT	5.00000E+001	PF Corr. (ohm)
CYCLES	IQUANT	101	C&ycles (#)
ELECTRODETYPE	SELECTOR	0	Electrode Type
STRIPPING	TOGGLE	F	Used for Stripping
POLARITY	TOGGLE	F	Signal Polarity
LINEFREQ	IQUANT	60	Line Frequency (Hz)
INTPERIOD	QUANT	3.3334E-005	Integration Period (s)
SEQUENCER	TOGGLE	TRUE	Run as Sequence
PSTATMODEL	IQUANT	4	Pstat Model
PSTATSECTION	LABEL	REF600-24079	Pstat Section
PSTATSERIALNO	LABEL	24079	Pstat Serial Number
CTRLMODE	IQUANT	1	Control Mode
ELECTROMETER	IQUANT	0	RE=0 or CS=1
IESTAB	IQUANT	2	I/E Stability
CASPEED	IQUANT	6	Control Amp Speed
CONVENTION	IQUANT	1	Current Convention
ICHRANGE	IQUANT	2	Ich Range
ICHRANGEMODE	TOGGLE	F	Ich Auto Range
ICHOFFSETENABLE	TOGGLE	F	Ich Offset Enable
ICHOFFSET	QUANT	0	Ich Offset (V)
ICHFILTER	IQUANT	2	Ich Filter
VCHRANGE	IQUANT	2	Vch Range
VCHRANGEMODE	TOGGLE	F	Vch Auto Range
VCHOFFSETENABLE	TOGGLE	F	Vch Offset Enable
VCHOFFSET	QUANT	0	Vch Offset (V)
VCHFILTER	IQUANT	2	Vch Filter
ACHRANGE	IQUANT	2	Ach Range
ACHOFFSETENABLE	TOGGLE	F	Ach Offset Enable
ACHOFFSET	QUANT	0	Ach Offset (V)
ACHFILTER	IQUANT	1	Ach Filter
IERANGELOWERLIMIT	IQUANT	1	I/E Range Lower Limit
IERANGEMODE	TOGGLE	F	I/E AutoRange
IERANGE	IQUANT	6	I/E Range
POSFEEDENABLE	TOGGLE	F	Positive Feedback IR Comp
POSFEEDRESISTANCE	QUANT	0	Positive Feedback Resistance (ohm)
ACHSELECT	IQUANT	0	Ach Select
SENSECABLEID	IQUANT	13	Sense Cable ID
PWRCABLEID	IQUANT	13	Power Cable ID
DCCALDATE	LABEL	6/30/2020	DC Calibration Date
ACCALDATE	LABEL	6/30/2020	AC Calibration Date
THERMOSELECT	IQUANT	1	Thermo Select
FRAMEWORKVERSION	LABEL	7.8.2	Framework Version
INSTRUMENTVERSION	LABEL	4.40	Instrument Version
CURVE	TABLE	101
	Pt	T	Vfwd	Vrev	Vstep	Ifwd	Irev	Idif	Sig	Ach	IERange	Over	Temp
	#	s	V	V	V	A	A	A	V	V	#	bits	deg C
	0	0.04	-3.24903E-001	-3.75540E-001	-3.50222E-001	-1.03374E-007	-2.63470E-007	1.60096E-007	-3.75000E-001	4.09789E-004	6	..........a	-327.68
	1	0.08	-3.22239E-001	-3.73543E-001	-3.47891E-001	-2.88856E-008	-2.50633E-007	2.21747E-007	-3.73000E-001	3.96873E-004	6	..........a	-327.68
	2	0.12	-3.20245E-001	-3.71561E-001	-3.45903E-001	-2.37424E-008	-2.44711E-007	2.20969E-007	-3.71000E-001	3.86873E-004	6	..........a	-327.68
	3	0.16	-3.18128E-001	-3.69434E-001	-3.43781E-001	-1.88785E-008	-2.39220E-007	2.20341E-007	-3.69000E-001	4.01873E-004	6	..........a	-327.68
	4	0.2	-3.16253E-001	-3.67520E-001	-3.41886E-001	-1.60831E-008	-2.36289E-007	2.20206E-007	-3.67000E-001	3.73539E-004	6	..........a	-327.68
	5	0.24	-3.14250E-001	-3.65578E-001	-3.39914E-001	-1.38470E-008	-2.32022E-007	2.18175E-007	-3.65000E-001	4.08539E-004	6	..........a	-327.68
	6	0.28	-3.12220E-001	-3.63536E-001	-3.37878E-001	-1.08083E-008	-2.28987E-007	2.18179E-007	-3.63000E-001	4.02706E-004	6	..........a	-327.68
	7	0.32	-3.10170E-001	-3.61492E-001	-3.35831E-001	-9.73149E-009	-2.25739E-007	2.16007E-007	-3.61000E-001	3.84373E-004	6	..........a	-327.68
	8	0.36	-3.08229E-001	-3.59500E-001	-3.33865E-001	-6.54108E-009	-2.21883E-007	2.15342E-007	-3.59000E-001	4.08956E-004	6	..........a	-327.68
	9	0.4	-3.06280E-001	-3.57571E-001	-3.31926E-001	-4.75252E-009	-2.19630E-007	2.14877E-007	-3.57000E-001	3.95623E-004	6	..........a	-327.68
	10	0.44	-3.04242E-001	-3.55561E-001	-3.29902E-001	-3.49736E-009	-2.15949E-007	2.12451E-007	-3.55000E-001	4.00206E-004	6	..........a	-327.68
	11	0.48	-3.02213E-001	-3.53526E-001	-3.27870E-001	-3.08623E-010	-2.13760E-007	2.13451E-007	-3.53000E-001	3.98956E-004	6	..........a	-327.68
	12	0.52	-3.00250E-001	-3.51536E-001	-3.25893E-001	2.82286E-010	-2.11726E-007	2.12009E-007	-3.51000E-001	4.01456E-004	6	..........a	-327.68
	13	0.56	-2.98246E-001	-3.49560E-001	-3.23903E-001	3.28267E-009	-2.07746E-007	2.11029E-007	-3.49000E-001	4.12289E-004	6	..........a	-327.68
	14	0.6	-2.96259E-001	-3.47538E-001	-3.21898E-001	5.09707E-009	-2.06127E-007	2.11224E-007	-3.47000E-001	4.06873E-004	6	..........a	-327.68
	15	0.64	-2.94162E-001	-3.45506E-001	-3.19834E-001	6.81145E-009	-2.02483E-007	2.09294E-007	-3.45000E-001	3.98539E-004	6	..........a	-327.68
	16	0.68	-2.92246E-001	-3.43501E-001	-3.17873E-001	9.46095E-009	-2.00719E-007	2.10180E-007	-3.43000E-001	3.93539E-004	6	..........a	-327.68
	17	0.72	-2.90261E-001	-3.41564E-001	-3.15912E-001	1.04444E-008	-1.98436E-007	2.08880E-007	-3.41000E-001	4.05206E-004	6	..........a	-327.68
	18	0.76	-2.88233E-001	-3.39554E-001	-3.13894E-001	1.33356E-008	-1.95629E-007	2.08965E-007	-3.39000E-001	4.04373E-004	6	..........a	-327.68
	19	0.8	-2.86152E-001	-3.37451E-001	-3.11802E-001	1.48108E-008	-1.94169E-007	2.08980E-007	-3.37000E-001	3.84373E-004	6	..........a	-327.68
	20	0.84	-2.84235E-001	-3.35502E-001	-3.09868E-001	1.64068E-008	-1.91222E-007	2.07629E-007	-3.35000E-001	3.98123E-004	6	..........a	-327.68
	21	0.88	-2.82242E-001	-3.33547E-001	-3.07894E-001	1.96964E-008	-1.89466E-007	2.09162E-007	-3.33000E-001	3.92289E-004	6	..........a	-327.68
	22	0.92	-2.80241E-001	-3.31556E-001	-3.05898E-001	2.05807E-008	-1.88499E-007	2.09080E-007	-3.31000E-001	3.81456E-004	6	..........a	-327.68
	23	0.96	-2.78186E-001	-3.29521E-001	-3.03853E-001	2.31235E-008	-1.84895E-007	2.08019E-007	-3.29000E-001	3.95623E-004	6	..........a	-327.68
	24	1	-2.76238E-001	-3.27535E-001	-3.01886E-001	2.50863E-008	-1.84536E-007	2.09623E-007	-3.27000E-001	3.88956E-004	6	..........a	-327.68
	25	1.04	-2.74231E-001	-3.25550E-001	-2.99891E-001	2.70640E-008	-1.81663E-007	2.08727E-007	-3.25000E-001	4.14789E-004	6	..........a	-327.68
	26	1.08	-2.72256E-001	-3.23539E-001	-2.97898E-001	2.96927E-008	-1.80496E-007	2.10188E-007	-3.23000E-001	3.83539E-004	6	..........a	-327.68
	27	1.12	-2.70228E-001	-3.21537E-001	-2.95882E-001	3.07478E-008	-1.78932E-007	2.09680E-007	-3.21000E-001	3.96873E-004	6	..........a	-327.68
	28	1.16	-2.68264E-001	-3.19495E-001	-2.93880E-001	3.35749E-008	-1.76299E-007	2.09874E-007	-3.19000E-001	4.00623E-004	6	..........a	-327.68
	29	1.2	-2.66253E-001	-3.17559E-001	-2.91906E-001	3.53234E-008	-1.75831E-007	2.11154E-007	-3.17000E-001	3.98123E-004	6	..........a	-327.68
	30	1.24	-2.64266E-001	-3.15559E-001	-2.89912E-001	3.73387E-008	-1.73496E-007	2.10835E-007	-3.15000E-001	4.00623E-004	6	..........a	-327.68
	31	1.28	-2.62195E-001	-3.13513E-001	-2.87854E-001	3.96906E-008	-1.72707E-007	2.12398E-007	-3.13000E-001	3.98956E-004	6	..........a	-327.68
	32	1.32	-2.60230E-001	-3.11508E-001	-2.85869E-001	4.05841E-008	-1.71033E-007	2.11617E-007	-3.11000E-001	3.79789E-004	6	..........a	-327.68
	33	1.36	-2.58258E-001	-3.09529E-001	-2.83894E-001	4.32302E-008	-1.69049E-007	2.12279E-007	-3.09000E-001	4.09789E-004	6	..........a	-327.68
	34	1.4	-2.56245E-001	-3.07527E-001	-2.81886E-001	4.45496E-008	-1.68382E-007	2.12932E-007	-3.07000E-001	3.90206E-004	6	..........a	-327.68
	35	1.44	-2.54180E-001	-3.05491E-001	-2.79835E-001	4.59989E-008	-1.66541E-007	2.12540E-007	-3.05000E-001	3.91039E-004	6	..........a	-327.68
	36	1.48	-2.52253E-001	-3.03516E-001	-2.77885E-001	4.88535E-008	-1.65303E-007	2.14156E-007	-3.03000E-001	3.97289E-004	6	..........a	-327.68
	37	1.52	-2.50266E-001	-3.01556E-001	-2.75911E-001	4.89643E-008	-1.64706E-007	2.13671E-007	-3.01000E-001	3.85206E-004	6	..........a	-327.68
	38	1.56	-2.48247E-001	-2.99538E-001	-2.73892E-001	5.25614E-008	-1.62757E-007	2.15318E-007	-2.99000E-001	3.94789E-004	6	..........a	-327.68
	39	1.6	-2.46203E-001	-2.97528E-001	-2.71866E-001	5.23597E-008	-1.62897E-007	2.15257E-007	-2.97000E-001	3.82289E-004	6	..........a	-327.68
	40	1.64	-2.44251E-001	-2.95531E-001	-2.69891E-001	5.40633E-008	-1.60256E-007	2.14320E-007	-2.95000E-001	3.89373E-004	6	..........a	-327.68
	41	1.68	-2.42287E-001	-2.93576E-001	-2.67931E-001	5.55627E-008	-1.59951E-007	2.15514E-007	-2.93000E-001	4.00623E-004	6	..........a	-327.68
	42	1.72	-2.40248E-001	-2.91525E-001	-2.65886E-001	5.60202E-008	-1.58556E-007	2.14576E-007	-2.91000E-001	3.92289E-004	6	..........a	-327.68
	43	1.76	-2.38209E-001	-2.89499E-001	-2.63854E-001	5.84113E-008	-1.56810E-007	2.15222E-007	-2.89000E-001	4.03956E-004	6	..........a	-327.68
	44	1.8	-2.36251E-001	-2.87507E-001	-2.61879E-001	5.83038E-008	-1.56271E-007	2.14575E-007	-2.87000E-001	4.05206E-004	6	..........a	-327.68
	45	1.84	-2.34256E-001	-2.85530E-001	-2.59893E-001	5.95415E-008	-1.54131E-007	2.13672E-007	-2.85000E-001	3.81039E-004	6	..........a	-327.68
	46	1.88	-2.32228E-001	-2.83514E-001	-2.57871E-001	6.07491E-008	-1.53132E-007	2.13881E-007	-2.83000E-001	3.90623E-004	6	..........a	-327.68
	47	1.92	-2.30179E-001	-2.81472E-001	-2.55826E-001	6.06016E-008	-1.51975E-007	2.12577E-007	-2.81000E-001	3.85623E-004	6	..........a	-327.68
	48	1.96	-2.28260E-001	-2.79504E-001	-2.53882E-001	6.26352E-008	-1.50298E-007	2.12933E-007	-2.79000E-001	3.98123E-004	6	..........a	-327.68
	49	2	-2.26265E-001	-2.77542E-001	-2.51903E-001	6.21260E-008	-1.49882E-007	2.12008E-007	-2.77000E-001	3.82289E-004	6	..........a	-327.68
	50	2.04	-2.24245E-001	-2.75538E-001	-2.49891E-001	6.26060E-008	-1.46941E-007	2.09547E-007	-2.75000E-001	3.91039E-004	6	..........a	-327.68
	51	2.08	-2.22203E-001	-2.73506E-001	-2.47855E-001	6.37129E-008	-1.46805E-007	2.10518E-007	-2.73000E-001	3.78956E-004	6	..........a	-327.68
	52	2.12	-2.20246E-001	-2.71529E-001	-2.45887E-001	6.33795E-008	-1.44835E-007	2.08214E-007	-2.71000E-001	3.90623E-004	6	..........a	-327.68
	53	2.16	-2.18239E-001	-2.69527E-001	-2.43883E-001	6.50447E-008	-1.43289E-007	2.08334E-007	-2.69000E-001	3.99789E-004	6	..........a	-327.68
	54	2.2	-2.16168E-001	-2.67499E-001	-2.41833E-001	6.44580E-008	-1.42408E-007	2.06866E-007	-2.67000E-001	3.84373E-004	6	..........a	-327.68
	55	2.24	-2.14138E-001	-2.65458E-001	-2.39798E-001	6.46180E-008	-1.39289E-007	2.03907E-007	-2.65000E-001	3.86456E-004	6	..........a	-327.68
	56	2.28	-2.12256E-001	-2.63526E-001	-2.37891E-001	6.59073E-008	-1.38887E-007	2.04794E-007	-2.63000E-001	3.76873E-004	6	..........a	-327.68
	57	2.32	-2.10266E-001	-2.61541E-001	-2.35903E-001	6.47805E-008	-1.37167E-007	2.01947E-007	-2.61000E-001	3.93956E-004	6	..........a	-327.68
	58	2.36	-2.08247E-001	-2.59531E-001	-2.33889E-001	6.60240E-008	-1.34537E-007	2.00561E-007	-2.59000E-001	3.99373E-004	6	..........a	-327.68
	59	2.4	-2.06174E-001	-2.57468E-001	-2.31821E-001	6.58756E-008	-1.34472E-007	2.00347E-007	-2.57000E-001	3.81456E-004	6	..........a	-327.68
	60	2.44	-2.04273E-001	-2.55513E-001	-2.29893E-001	6.58073E-008	-1.31309E-007	1.97117E-007	-2.55000E-001	3.86873E-004	6	..........a	-327.68
	61	2.48	-2.02269E-001	-2.53532E-001	-2.27900E-001	6.64382E-008	-1.30578E-007	1.97016E-007	-2.53000E-001	4.06456E-004	6	..........a	-327.68
	62	2.52	-2.00251E-001	-2.51536E-001	-2.25894E-001	6.63107E-008	-1.28757E-007	1.95067E-007	-2.51000E-001	3.76456E-004	6	..........a	-327.68
	63	2.56	-1.98204E-001	-2.49496E-001	-2.23850E-001	6.76767E-008	-1.26510E-007	1.94186E-007	-2.49000E-001	3.88123E-004	6	..........a	-327.68
	64	2.6	-1.96254E-001	-2.47525E-001	-2.21889E-001	6.68699E-008	-1.26282E-007	1.93152E-007	-2.47000E-001	3.88123E-004	6	..........a	-327.68
	65	2.64	-1.94252E-001	-2.45546E-001	-2.19899E-001	6.70658E-008	-1.23357E-007	1.90423E-007	-2.45000E-001	3.96456E-004	6	..........a	-327.68
	66	2.68	-1.92254E-001	-2.43509E-001	-2.17881E-001	6.84251E-008	-1.22697E-007	1.91122E-007	-2.43000E-001	3.98123E-004	6	..........a	-327.68
	67	2.72	-1.90121E-001	-2.41418E-001	-2.15770E-001	6.77175E-008	-1.21172E-007	1.88890E-007	-2.41000E-001	3.72706E-004	6	..........a	-327.68
	68	2.76	-1.88238E-001	-2.39491E-001	-2.13865E-001	6.89819E-008	-1.19290E-007	1.88271E-007	-2.39000E-001	4.10623E-004	6	..........a	-327.68
	69	2.8	-1.86268E-001	-2.37545E-001	-2.11907E-001	6.82034E-008	-1.18392E-007	1.86595E-007	-2.37000E-001	3.82706E-004	6	..........a	-327.68
	70	2.84	-1.84218E-001	-2.35498E-001	-2.09858E-001	6.85193E-008	-1.15707E-007	1.84226E-007	-2.35000E-001	3.88123E-004	6	..........a	-327.68
	71	2.88	-1.82157E-001	-2.33467E-001	-2.07812E-001	6.99420E-008	-1.15532E-007	1.85474E-007	-2.33000E-001	3.95623E-004	6	..........a	-327.68
	72	2.92	-1.80194E-001	-2.31494E-001	-2.05844E-001	6.91310E-008	-1.13495E-007	1.82626E-007	-2.31000E-001	3.78956E-004	6	..........a	-327.68
	73	2.96	-1.78245E-001	-2.29543E-001	-2.03894E-001	7.04537E-008	-1.11650E-007	1.82104E-007	-2.29000E-001	3.78123E-004	6	..........a	-327.68
	74	3	-1.76227E-001	-2.27513E-001	-2.01870E-001	7.00762E-008	-1.11834E-007	1.81910E-007	-2.27000E-001	3.95623E-004	6	..........a	-327.68
	75	3.04	-1.74192E-001	-2.25496E-001	-1.99844E-001	7.06754E-008	-1.09197E-007	1.79873E-007	-2.25000E-001	3.89789E-004	6	..........a	-327.68
	76	3.08	-1.72237E-001	-2.23518E-001	-1.97878E-001	7.18897E-008	-1.08667E-007	1.80556E-007	-2.23000E-001	3.87289E-004	6	..........a	-327.68
	77	3.12	-1.70242E-001	-2.21537E-001	-1.95890E-001	7.13747E-008	-1.07111E-007	1.78486E-007	-2.21000E-001	3.86873E-004	6	..........a	-327.68
	78	3.16	-1.68229E-001	-2.19520E-001	-1.93875E-001	7.30024E-008	-1.05689E-007	1.78691E-007	-2.19000E-001	3.99373E-004	6	..........a	-327.68
	79	3.2	-1.66156E-001	-2.17482E-001	-1.91819E-001	7.24681E-008	-1.05513E-007	1.77981E-007	-2.17000E-001	3.62706E-004	6	..........a	-327.68
	80	3.24	-1.64215E-001	-2.15497E-001	-1.89856E-001	7.28348E-008	-1.02329E-007	1.75164E-007	-2.15000E-001	3.71873E-004	6	..........a	-327.68
	81	3.28	-1.62273E-001	-2.13553E-001	-1.87913E-001	7.42217E-008	-1.02459E-007	1.76681E-007	-2.13000E-001	3.75623E-004	6	..........a	-327.68
	82	3.32	-1.60228E-001	-2.11526E-001	-1.85877E-001	7.35683E-008	-1.01689E-007	1.75257E-007	-2.11000E-001	3.81039E-004	6	..........a	-327.68
	83	3.36	-1.58163E-001	-2.09461E-001	-1.83812E-001	7.55110E-008	-9.94987E-008	1.75010E-007	-2.09000E-001	3.99789E-004	6	..........a	-327.68
	84	3.4	-1.56207E-001	-2.07482E-001	-1.81845E-001	7.50443E-008	-9.94271E-008	1.74471E-007	-2.07000E-001	3.94373E-004	6	..........a	-327.68
	85	3.44	-1.54238E-001	-2.05527E-001	-1.79882E-001	7.56227E-008	-9.71268E-008	1.72749E-007	-2.05000E-001	3.84373E-004	6	..........a	-327.68
	86	3.48	-1.52211E-001	-2.03522E-001	-1.77867E-001	7.66287E-008	-9.72426E-008	1.73871E-007	-2.03000E-001	3.67706E-004	6	..........a	-327.68
	87	3.52	-1.50171E-001	-2.01486E-001	-1.75828E-001	7.68204E-008	-9.60558E-008	1.72876E-007	-2.01000E-001	3.93956E-004	6	..........a	-327.68
	88	3.56	-1.48230E-001	-1.99514E-001	-1.73872E-001	7.84306E-008	-9.48598E-008	1.73290E-007	-1.99000E-001	3.93539E-004	6	..........a	-327.68
	89	3.6	-1.46223E-001	-1.97533E-001	-1.71878E-001	7.81555E-008	-9.46039E-008	1.72759E-007	-1.97000E-001	3.78539E-004	6	..........a	-327.68
	90	3.64	-1.44238E-001	-1.95519E-001	-1.69879E-001	7.85389E-008	-9.26179E-008	1.71157E-007	-1.95000E-001	3.87289E-004	6	..........a	-327.68
	91	3.68	-1.42205E-001	-1.93503E-001	-1.67854E-001	8.04325E-008	-9.27137E-008	1.73146E-007	-1.93000E-001	3.81456E-004	6	..........a	-327.68
	92	3.72	-1.40214E-001	-1.91488E-001	-1.65851E-001	7.99232E-008	-9.20211E-008	1.71944E-007	-1.91000E-001	3.79373E-004	6	..........a	-327.68
	93	3.76	-1.38240E-001	-1.89553E-001	-1.63896E-001	8.17385E-008	-9.05893E-008	1.72328E-007	-1.89000E-001	3.76456E-004	6	..........a	-327.68
	94	3.8	-1.36216E-001	-1.87526E-001	-1.61871E-001	8.18993E-008	-9.07310E-008	1.72630E-007	-1.87000E-001	3.69373E-004	6	..........a	-327.68
	95	3.84	-1.34174E-001	-1.85510E-001	-1.59842E-001	8.22569E-008	-8.85365E-008	1.70793E-007	-1.85000E-001	4.06873E-004	6	..........a	-327.68
	96	3.88	-1.32206E-001	-1.83485E-001	-1.57845E-001	8.33845E-008	-8.94916E-008	1.72876E-007	-1.83000E-001	3.89373E-004	6	..........a	-327.68
	97	3.92	-1.30232E-001	-1.81523E-001	-1.55878E-001	8.34295E-008	-8.80306E-008	1.71460E-007	-1.81000E-001	3.70623E-004	6	..........a	-327.68
	98	3.96	-1.28212E-001	-1.79505E-001	-1.53859E-001	8.51781E-008	-8.74080E-008	1.72586E-007	-1.79000E-001	3.73539E-004	6	..........a	-327.68
	99	4	-1.26150E-001	-1.77481E-001	-1.51816E-001	8.49164E-008	-8.73097E-008	1.72226E-007	-1.77000E-001	3.71873E-004	6	..........a	-327.68
	100	4.04	-1.24222E-001	-1.75509E-001	-1.49866E-001	8.55331E-008	-8.56795E-008	1.71213E-007	-1.75000E-001	4.06873E-004	6	..........a	-327.68
