EXPLAIN
TAG	SQUARE_WAVE
TITLE	LABEL	Square Wave Voltammetry	Test Identifier
DATE	LABEL	8/10/2020	Date
TIME	LABEL	17:34:28	Time
NOTES	NOTES	1	Notes...
	
PSTAT	PSTAT	REF600-24079	Potentiostat
VINIT	QUANT	-3.50000E-001	Initial E (V)
VFINAL	QUANT	-1.50000E-001	Final E (V)
STEPSIZE	QUANT	2.00000E+000	Step Size (mV)
TIMERRES	QUANT	3.33340E-005	&Timer Resolution
FREQUENCY	QUANT	2.00000E+002	Frequency (Hz)
PULSESIZE	QUANT	2.50000E+001	Pulse Size E (mV)
PULSEON	QUANT	5.00000E-003	Pulse &Time (s)
NOISEREJECT	TOGGLE	F	Noise Rejection
AREA	QUANT	2.00000E-002	Sample Area (cm^2)
IMODE	SELECTOR	1	I/E Range Mode
IRANGE	QUANT	1.00000E-002	Max Current (mA)
EQDELAY	IQUANT	10	Equil. Time (s)
IRCOMP	SELECTOR	0	IRComp
PFCOR	QUANT	5.00000E+001	PF Corr. (ohm)
CYCLES	IQUANT	101	C&ycles (#)
ELECTRODETYPE	SELECTOR	0	Electrode Type
STRIPPING	TOGGLE	F	Used for Stripping
POLARITY	TOGGLE	F	Signal Polarity
LINEFREQ	IQUANT	60	Line Frequency (Hz)
INTPERIOD	QUANT	3.3334E-005	Integration Period (s)
SEQUENCER	TOGGLE	TRUE	Run as Sequence
PSTATMODEL	IQUANT	4	Pstat Model
PSTATSECTION	LABEL	REF600-24079	Pstat Section
PSTATSERIALNO	LABEL	24079	Pstat Serial Number
CTRLMODE	IQUANT	1	Control Mode
ELECTROMETER	IQUANT	0	RE=0 or CS=1
IESTAB	IQUANT	2	I/E Stability
CASPEED	IQUANT	6	Control Amp Speed
CONVENTION	IQUANT	1	Current Convention
ICHRANGE	IQUANT	2	Ich Range
ICHRANGEMODE	TOGGLE	F	Ich Auto Range
ICHOFFSETENABLE	TOGGLE	F	Ich Offset Enable
ICHOFFSET	QUANT	0	Ich Offset (V)
ICHFILTER	IQUANT	2	Ich Filter
VCHRANGE	IQUANT	2	Vch Range
VCHRANGEMODE	TOGGLE	F	Vch Auto Range
VCHOFFSETENABLE	TOGGLE	F	Vch Offset Enable
VCHOFFSET	QUANT	0	Vch Offset (V)
VCHFILTER	IQUANT	1	Vch Filter
ACHRANGE	IQUANT	2	Ach Range
ACHOFFSETENABLE	TOGGLE	F	Ach Offset Enable
ACHOFFSET	QUANT	0	Ach Offset (V)
ACHFILTER	IQUANT	1	Ach Filter
IERANGELOWERLIMIT	IQUANT	1	I/E Range Lower Limit
IERANGEMODE	TOGGLE	F	I/E AutoRange
IERANGE	IQUANT	7	I/E Range
POSFEEDENABLE	TOGGLE	F	Positive Feedback IR Comp
POSFEEDRESISTANCE	QUANT	0	Positive Feedback Resistance (ohm)
ACHSELECT	IQUANT	0	Ach Select
SENSECABLEID	IQUANT	13	Sense Cable ID
PWRCABLEID	IQUANT	13	Power Cable ID
DCCALDATE	LABEL	6/30/2020	DC Calibration Date
ACCALDATE	LABEL	6/30/2020	AC Calibration Date
THERMOSELECT	IQUANT	1	Thermo Select
FRAMEWORKVERSION	LABEL	7.8.2	Framework Version
INSTRUMENTVERSION	LABEL	4.40	Instrument Version
CURVE	TABLE	101
	Pt	T	Vfwd	Vrev	Vstep	Ifwd	Irev	Idif	Sig	Ach	IERange	Over	Temp
	#	s	V	V	V	A	A	A	V	V	#	bits	deg C
	0	0.005	-3.23388E-001	-3.79291E-001	-3.51339E-001	-9.97182E-008	-3.20647E-006	3.10676E-006	-3.75000E-001	4.62706E-004	7	..........a	-327.68
	1	0.01	-3.14658E-001	-3.77891E-001	-3.46274E-001	2.98624E-006	-3.37503E-006	6.36127E-006	-3.73000E-001	3.49373E-004	7	..........a	-327.68
	2	0.015	-3.12661E-001	-3.75881E-001	-3.44271E-001	3.03864E-006	-3.35396E-006	6.39260E-006	-3.71000E-001	3.82706E-004	7	..........a	-327.68
	3	0.02	-3.10661E-001	-3.73901E-001	-3.42281E-001	3.04578E-006	-3.33036E-006	6.37614E-006	-3.69000E-001	3.79373E-004	7	..........a	-327.68
	4	0.025	-3.08728E-001	-3.71908E-001	-3.40318E-001	3.05765E-006	-3.31496E-006	6.37260E-006	-3.67000E-001	3.86039E-004	7	..........a	-327.68
	5	0.03	-3.06714E-001	-3.69804E-001	-3.38259E-001	3.05811E-006	-3.30415E-006	6.36227E-006	-3.65000E-001	3.79373E-004	7	..........a	-327.68
	6	0.035	-3.04707E-001	-3.67814E-001	-3.36261E-001	3.06318E-006	-3.29155E-006	6.35473E-006	-3.63000E-001	4.19373E-004	7	..........a	-327.68
	7	0.04	-3.02751E-001	-3.65854E-001	-3.34303E-001	3.06111E-006	-3.28155E-006	6.34266E-006	-3.61000E-001	3.16039E-004	7	..........a	-327.68
	8	0.045	-3.00754E-001	-3.63778E-001	-3.32266E-001	3.07025E-006	-3.26828E-006	6.33853E-006	-3.59000E-001	3.32706E-004	7	..........a	-327.68
	9	0.05	-2.98751E-001	-3.61801E-001	-3.30276E-001	3.06811E-006	-3.26402E-006	6.33213E-006	-3.57000E-001	3.36039E-004	7	..........a	-327.68
	10	0.055	-2.96768E-001	-3.59851E-001	-3.28309E-001	3.06958E-006	-3.25135E-006	6.32093E-006	-3.55000E-001	3.92706E-004	7	..........a	-327.68
	11	0.06	-2.94698E-001	-3.57881E-001	-3.26289E-001	3.06985E-006	-3.24668E-006	6.31653E-006	-3.53000E-001	3.69373E-004	7	..........a	-327.68
	12	0.065	-2.92774E-001	-3.55844E-001	-3.24309E-001	3.07051E-006	-3.23588E-006	6.30639E-006	-3.51000E-001	3.59373E-004	7	..........a	-327.68
	13	0.07	-2.90624E-001	-3.53871E-001	-3.22248E-001	3.07118E-006	-3.22694E-006	6.29813E-006	-3.49000E-001	3.82706E-004	7	..........a	-327.68
	14	0.075	-2.88718E-001	-3.51851E-001	-3.20284E-001	3.06851E-006	-3.21828E-006	6.28679E-006	-3.47000E-001	3.62706E-004	7	..........a	-327.68
	15	0.08	-2.86704E-001	-3.49858E-001	-3.18281E-001	3.07245E-006	-3.21208E-006	6.28452E-006	-3.45000E-001	3.42706E-004	7	..........a	-327.68
	16	0.085	-2.84698E-001	-3.47884E-001	-3.16291E-001	3.06978E-006	-3.20561E-006	6.27539E-006	-3.43000E-001	4.12706E-004	7	..........a	-327.68
	17	0.09	-2.82674E-001	-3.45838E-001	-3.14256E-001	3.07651E-006	-3.19914E-006	6.27566E-006	-3.41000E-001	3.59373E-004	7	..........a	-327.68
	18	0.095	-2.80744E-001	-3.43821E-001	-3.12283E-001	3.07365E-006	-3.19514E-006	6.26879E-006	-3.39000E-001	3.82706E-004	7	..........a	-327.68
	19	0.1	-2.78714E-001	-3.41798E-001	-3.10256E-001	3.07805E-006	-3.18567E-006	6.26372E-006	-3.37000E-001	3.69373E-004	7	..........a	-327.68
	20	0.105	-2.76794E-001	-3.39808E-001	-3.08301E-001	3.07638E-006	-3.18201E-006	6.25839E-006	-3.35000E-001	3.59373E-004	7	..........a	-327.68
	21	0.11	-2.74734E-001	-3.37828E-001	-3.06281E-001	3.08011E-006	-3.17440E-006	6.25452E-006	-3.33000E-001	3.79373E-004	7	..........a	-327.68
	22	0.115	-2.72801E-001	-3.35851E-001	-3.04326E-001	3.07898E-006	-3.17040E-006	6.24939E-006	-3.31000E-001	4.12706E-004	7	..........a	-327.68
	23	0.12	-2.70754E-001	-3.33838E-001	-3.02296E-001	3.07985E-006	-3.16720E-006	6.24705E-006	-3.29000E-001	4.02706E-004	7	..........a	-327.68
	24	0.125	-2.68818E-001	-3.31811E-001	-3.00314E-001	3.08398E-006	-3.15907E-006	6.24305E-006	-3.27000E-001	3.86039E-004	7	..........a	-327.68
	25	0.13	-2.66694E-001	-3.29854E-001	-2.98274E-001	3.08285E-006	-3.15307E-006	6.23592E-006	-3.25000E-001	3.76039E-004	7	..........a	-327.68
	26	0.135	-2.64634E-001	-3.27837E-001	-2.96236E-001	3.08465E-006	-3.15060E-006	6.23525E-006	-3.23000E-001	3.69373E-004	7	..........a	-327.68
	27	0.14	-2.62758E-001	-3.25854E-001	-2.94306E-001	3.08752E-006	-3.14560E-006	6.23312E-006	-3.21000E-001	3.72706E-004	7	..........a	-327.68
	28	0.145	-2.60698E-001	-3.23828E-001	-2.92263E-001	3.09045E-006	-3.14167E-006	6.23212E-006	-3.19000E-001	3.69373E-004	7	..........a	-327.68
	29	0.15	-2.58724E-001	-3.21861E-001	-2.90293E-001	3.09052E-006	-3.13747E-006	6.22798E-006	-3.17000E-001	3.86039E-004	7	..........a	-327.68
	30	0.155	-2.56748E-001	-3.19774E-001	-2.88261E-001	3.09158E-006	-3.13593E-006	6.22752E-006	-3.15000E-001	3.79373E-004	7	..........a	-327.68
	31	0.16	-2.54748E-001	-3.17771E-001	-2.86259E-001	3.09892E-006	-3.13093E-006	6.22985E-006	-3.13000E-001	3.59373E-004	7	..........a	-327.68
	32	0.165	-2.52784E-001	-3.15744E-001	-2.84264E-001	3.09972E-006	-3.12973E-006	6.22945E-006	-3.11000E-001	3.72706E-004	7	..........a	-327.68
	33	0.17	-2.50721E-001	-3.13837E-001	-2.82279E-001	3.09858E-006	-3.12753E-006	6.22612E-006	-3.09000E-001	3.72706E-004	7	..........a	-327.68
	34	0.175	-2.48784E-001	-3.11801E-001	-2.80293E-001	3.10545E-006	-3.12073E-006	6.22618E-006	-3.07000E-001	3.92706E-004	7	..........a	-327.68
	35	0.18	-2.46781E-001	-3.09828E-001	-2.78304E-001	3.10572E-006	-3.11886E-006	6.22458E-006	-3.05000E-001	3.89373E-004	7	..........a	-327.68
	36	0.185	-2.44801E-001	-3.07814E-001	-2.76308E-001	3.11012E-006	-3.11626E-006	6.22638E-006	-3.03000E-001	3.46039E-004	7	..........a	-327.68
	37	0.19	-2.42741E-001	-3.05841E-001	-2.74291E-001	3.11199E-006	-3.11346E-006	6.22545E-006	-3.01000E-001	3.56039E-004	7	..........a	-327.68
	38	0.195	-2.40711E-001	-3.03881E-001	-2.72296E-001	3.11479E-006	-3.11246E-006	6.22725E-006	-2.99000E-001	4.12706E-004	7	..........a	-327.68
	39	0.2	-2.38741E-001	-3.01834E-001	-2.70288E-001	3.12385E-006	-3.11040E-006	6.23425E-006	-2.97000E-001	3.56039E-004	7	..........a	-327.68
	40	0.205	-2.37041E-001	-2.99851E-001	-2.68446E-001	3.12212E-006	-3.10659E-006	6.22872E-006	-2.95000E-001	4.12706E-004	7	..........a	-327.68
	41	0.21	-2.34708E-001	-2.97837E-001	-2.66273E-001	3.12699E-006	-3.10666E-006	6.23365E-006	-2.93000E-001	3.12706E-004	7	..........a	-327.68
	42	0.215	-2.32801E-001	-2.95854E-001	-2.64328E-001	3.12692E-006	-3.09886E-006	6.22578E-006	-2.91000E-001	3.56039E-004	7	..........a	-327.68
	43	0.22	-2.30728E-001	-2.93798E-001	-2.62263E-001	3.12619E-006	-3.10179E-006	6.22798E-006	-2.89000E-001	3.96039E-004	7	..........a	-327.68
	44	0.225	-2.28778E-001	-2.91724E-001	-2.60251E-001	3.13166E-006	-3.09606E-006	6.22772E-006	-2.87000E-001	3.59373E-004	7	..........a	-327.68
	45	0.23	-2.26784E-001	-2.89778E-001	-2.58281E-001	3.13106E-006	-3.09693E-006	6.22798E-006	-2.85000E-001	3.92706E-004	7	..........a	-327.68
	46	0.235	-2.24791E-001	-2.87778E-001	-2.56284E-001	3.13259E-006	-3.09053E-006	6.22311E-006	-2.83000E-001	3.86039E-004	7	..........a	-327.68
	47	0.24	-2.22824E-001	-2.85781E-001	-2.54303E-001	3.13812E-006	-3.08866E-006	6.22678E-006	-2.81000E-001	4.12706E-004	7	..........a	-327.68
	48	0.245	-2.20801E-001	-2.83748E-001	-2.52274E-001	3.13706E-006	-3.08866E-006	6.22571E-006	-2.79000E-001	3.72706E-004	7	..........a	-327.68
	49	0.25	-2.18791E-001	-2.81824E-001	-2.50308E-001	3.14079E-006	-3.08319E-006	6.22398E-006	-2.77000E-001	3.66039E-004	7	..........a	-327.68
	50	0.255	-2.16798E-001	-2.79824E-001	-2.48311E-001	3.13999E-006	-3.08246E-006	6.22245E-006	-2.75000E-001	3.69373E-004	7	..........a	-327.68
	51	0.26	-2.14728E-001	-2.77834E-001	-2.46281E-001	3.14612E-006	-3.07826E-006	6.22438E-006	-2.73000E-001	3.59373E-004	7	..........a	-327.68
	52	0.265	-2.12834E-001	-2.75807E-001	-2.44321E-001	3.14172E-006	-3.07692E-006	6.21865E-006	-2.71000E-001	3.79373E-004	7	..........a	-327.68
	53	0.27	-2.10678E-001	-2.73864E-001	-2.42271E-001	3.14626E-006	-3.07472E-006	6.22098E-006	-2.69000E-001	3.82706E-004	7	..........a	-327.68
	54	0.275	-2.08774E-001	-2.71841E-001	-2.40308E-001	3.14899E-006	-3.07206E-006	6.22105E-006	-2.67000E-001	3.79373E-004	7	..........a	-327.68
	55	0.28	-2.06714E-001	-2.69837E-001	-2.38276E-001	3.14692E-006	-3.06866E-006	6.21558E-006	-2.65000E-001	3.69373E-004	7	..........a	-327.68
	56	0.285	-2.04784E-001	-2.67707E-001	-2.36246E-001	3.14666E-006	-3.06592E-006	6.21258E-006	-2.63000E-001	3.69373E-004	7	..........a	-327.68
	57	0.29	-2.02784E-001	-2.65804E-001	-2.34294E-001	3.14726E-006	-3.06159E-006	6.20885E-006	-2.61000E-001	3.62706E-004	7	..........a	-327.68
	58	0.295	-2.00791E-001	-2.63811E-001	-2.32301E-001	3.14999E-006	-3.06366E-006	6.21365E-006	-2.59000E-001	3.69373E-004	7	..........a	-327.68
	59	0.3	-1.98808E-001	-2.61757E-001	-2.30283E-001	3.14852E-006	-3.05625E-006	6.20478E-006	-2.57000E-001	3.76039E-004	7	..........a	-327.68
	60	0.305	-1.96861E-001	-2.59751E-001	-2.28306E-001	3.15206E-006	-3.05059E-006	6.20265E-006	-2.55000E-001	3.62706E-004	7	..........a	-327.68
	61	0.31	-1.94818E-001	-2.57811E-001	-2.26314E-001	3.14892E-006	-3.05112E-006	6.20004E-006	-2.53000E-001	3.86039E-004	7	..........a	-327.68
	62	0.315	-1.92841E-001	-2.55787E-001	-2.24314E-001	3.14946E-006	-3.04292E-006	6.19238E-006	-2.51000E-001	3.82706E-004	7	..........a	-327.68
	63	0.32	-1.90694E-001	-2.53794E-001	-2.22244E-001	3.14506E-006	-3.04619E-006	6.19124E-006	-2.49000E-001	3.29373E-004	7	..........a	-327.68
	64	0.325	-1.88828E-001	-2.51818E-001	-2.20323E-001	3.14992E-006	-3.03752E-006	6.18744E-006	-2.47000E-001	4.02706E-004	7	..........a	-327.68
	65	0.33	-1.86728E-001	-2.49834E-001	-2.18281E-001	3.14672E-006	-3.03925E-006	6.18598E-006	-2.45000E-001	3.99373E-004	7	..........a	-327.68
	66	0.335	-1.84774E-001	-2.47828E-001	-2.16301E-001	3.14912E-006	-3.03258E-006	6.18171E-006	-2.43000E-001	3.89373E-004	7	..........a	-327.68
	67	0.34	-1.82798E-001	-2.45838E-001	-2.14318E-001	3.14746E-006	-3.03192E-006	6.17938E-006	-2.41000E-001	3.69373E-004	7	..........a	-327.68
	68	0.345	-1.80801E-001	-2.43841E-001	-2.12321E-001	3.14479E-006	-3.02778E-006	6.17257E-006	-2.39000E-001	3.69373E-004	7	..........a	-327.68
	69	0.35	-1.78768E-001	-2.41778E-001	-2.10273E-001	3.14632E-006	-3.02585E-006	6.17217E-006	-2.37000E-001	4.09373E-004	7	..........a	-327.68
	70	0.355	-1.76831E-001	-2.39721E-001	-2.08276E-001	3.14812E-006	-3.02045E-006	6.16857E-006	-2.35000E-001	3.86039E-004	7	..........a	-327.68
	71	0.36	-1.74768E-001	-2.37778E-001	-2.06273E-001	3.14672E-006	-3.01618E-006	6.16291E-006	-2.33000E-001	3.92706E-004	7	..........a	-327.68
	72	0.365	-1.72814E-001	-2.35721E-001	-2.04268E-001	3.14159E-006	-3.01638E-006	6.15797E-006	-2.31000E-001	3.62706E-004	7	..........a	-327.68
	73	0.37	-1.70748E-001	-2.33791E-001	-2.02269E-001	3.14699E-006	-3.01298E-006	6.15997E-006	-2.29000E-001	3.79373E-004	7	..........a	-327.68
	74	0.375	-1.68814E-001	-2.31758E-001	-2.00286E-001	3.14699E-006	-3.01172E-006	6.15871E-006	-2.27000E-001	3.82706E-004	7	..........a	-327.68
	75	0.38	-1.66791E-001	-2.29801E-001	-1.98296E-001	3.14579E-006	-3.00925E-006	6.15504E-006	-2.25000E-001	3.49373E-004	7	..........a	-327.68
	76	0.385	-1.64704E-001	-2.27804E-001	-1.96254E-001	3.14406E-006	-3.00451E-006	6.14857E-006	-2.23000E-001	3.66039E-004	7	..........a	-327.68
	77	0.39	-1.62711E-001	-2.25828E-001	-1.94269E-001	3.14586E-006	-3.00231E-006	6.14817E-006	-2.21000E-001	3.79373E-004	7	..........a	-327.68
	78	0.395	-1.60788E-001	-2.23818E-001	-1.92303E-001	3.14606E-006	-3.00218E-006	6.14824E-006	-2.19000E-001	4.02706E-004	7	..........a	-327.68
	79	0.4	-1.58754E-001	-2.21778E-001	-1.90266E-001	3.14519E-006	-2.99698E-006	6.14217E-006	-2.17000E-001	3.66039E-004	7	..........a	-327.68
	80	0.405	-1.56771E-001	-2.19824E-001	-1.88298E-001	3.14812E-006	-2.99625E-006	6.14437E-006	-2.15000E-001	3.59373E-004	7	..........a	-327.68
	81	0.41	-1.54711E-001	-2.17791E-001	-1.86251E-001	3.14726E-006	-2.99545E-006	6.14270E-006	-2.13000E-001	4.09373E-004	7	..........a	-327.68
	82	0.415	-1.52788E-001	-2.15714E-001	-1.84251E-001	3.14519E-006	-2.99565E-006	6.14084E-006	-2.11000E-001	3.72706E-004	7	..........a	-327.68
	83	0.42	-1.50741E-001	-2.13808E-001	-1.82274E-001	3.15246E-006	-2.99505E-006	6.14750E-006	-2.09000E-001	3.49373E-004	7	..........a	-327.68
	84	0.425	-1.48781E-001	-2.11744E-001	-1.80263E-001	3.15486E-006	-2.99038E-006	6.14524E-006	-2.07000E-001	3.72706E-004	7	..........a	-327.68
	85	0.43	-1.46781E-001	-2.09804E-001	-1.78293E-001	3.15179E-006	-2.98958E-006	6.14137E-006	-2.05000E-001	3.36039E-004	7	..........a	-327.68
	86	0.435	-1.44841E-001	-2.07801E-001	-1.76321E-001	3.15293E-006	-2.99138E-006	6.14430E-006	-2.03000E-001	3.82706E-004	7	..........a	-327.68
	87	0.44	-1.42824E-001	-2.05774E-001	-1.74299E-001	3.15433E-006	-2.98564E-006	6.13997E-006	-2.01000E-001	3.96039E-004	7	..........a	-327.68
	88	0.445	-1.40771E-001	-2.03761E-001	-1.72266E-001	3.15599E-006	-2.98971E-006	6.14570E-006	-1.99000E-001	3.32706E-004	7	..........a	-327.68
	89	0.45	-1.38741E-001	-2.01818E-001	-1.70279E-001	3.15639E-006	-2.98825E-006	6.14464E-006	-1.97000E-001	3.66039E-004	7	..........a	-327.68
	90	0.455	-1.36731E-001	-1.99871E-001	-1.68301E-001	3.16273E-006	-2.98611E-006	6.14884E-006	-1.95000E-001	3.82706E-004	7	..........a	-327.68
	91	0.46	-1.34728E-001	-1.97788E-001	-1.66258E-001	3.16179E-006	-2.98664E-006	6.14844E-006	-1.93000E-001	3.76039E-004	7	..........a	-327.68
	92	0.465	-1.32808E-001	-1.95891E-001	-1.64349E-001	3.16393E-006	-2.98404E-006	6.14797E-006	-1.91000E-001	4.06039E-004	7	..........a	-327.68
	93	0.47	-1.30721E-001	-1.93854E-001	-1.62288E-001	3.16706E-006	-2.98878E-006	6.15584E-006	-1.89000E-001	3.72706E-004	7	..........a	-327.68
	94	0.475	-1.28788E-001	-1.91791E-001	-1.60289E-001	3.17393E-006	-2.98591E-006	6.15984E-006	-1.87000E-001	3.89373E-004	7	..........a	-327.68
	95	0.48	-1.26781E-001	-1.89758E-001	-1.58269E-001	3.17306E-006	-2.99038E-006	6.16344E-006	-1.85000E-001	4.12706E-004	7	..........a	-327.68
	96	0.485	-1.24801E-001	-1.87714E-001	-1.56258E-001	3.17766E-006	-2.98738E-006	6.16504E-006	-1.83000E-001	3.96039E-004	7	..........a	-327.68
	97	0.49	-1.22788E-001	-1.85848E-001	-1.54318E-001	3.18000E-006	-2.99125E-006	6.17124E-006	-1.81000E-001	3.76039E-004	7	..........a	-327.68
	98	0.495	-1.20818E-001	-1.83781E-001	-1.52299E-001	3.18213E-006	-2.98891E-006	6.17104E-006	-1.79000E-001	3.86039E-004	7	..........a	-327.68
	99	0.5	-1.18821E-001	-1.81781E-001	-1.50301E-001	3.18413E-006	-2.99098E-006	6.17511E-006	-1.77000E-001	3.59373E-004	7	..........a	-327.68
	100	0.505	-1.16848E-001	-1.79764E-001	-1.48306E-001	3.18866E-006	-2.99105E-006	6.17971E-006	-1.75000E-001	3.59373E-004	7	..........a	-327.68
