EXPLAIN
TAG	SQUARE_WAVE
TITLE	LABEL	Square Wave Voltammetry	Test Identifier
DATE	LABEL	8/10/2020	Date
TIME	LABEL	12:50:04	Time
NOTES	NOTES	1	Notes...
	 STD1 aptmch 08102
PSTAT	PSTAT	REF600-24079	Potentiostat
VINIT	QUANT	-3.50000E-001	Initial E (V)
VFINAL	QUANT	-1.50000E-001	Final E (V)
STEPSIZE	QUANT	2.00000E+000	Step Size (mV)
TIMERRES	QUANT	3.33340E-005	&Timer Resolution
FREQUENCY	QUANT	1.00000E+001	Frequency (Hz)
PULSESIZE	QUANT	2.50000E+001	Pulse Size E (mV)
PULSEON	QUANT	1.00000E-001	Pulse &Time (s)
NOISEREJECT	TOGGLE	F	Noise Rejection
AREA	QUANT	2.00000E-002	Sample Area (cm^2)
IMODE	SELECTOR	1	I/E Range Mode
IRANGE	QUANT	1.00000E-003	Max Current (mA)
EQDELAY	IQUANT	10	Equil. Time (s)
IRCOMP	SELECTOR	0	IRComp
PFCOR	QUANT	5.00000E+001	PF Corr. (ohm)
CYCLES	IQUANT	101	C&ycles (#)
ELECTRODETYPE	SELECTOR	0	Electrode Type
STRIPPING	TOGGLE	F	Used for Stripping
POLARITY	TOGGLE	F	Signal Polarity
LINEFREQ	IQUANT	60	Line Frequency (Hz)
INTPERIOD	QUANT	3.3334E-005	Integration Period (s)
SEQUENCER	TOGGLE	TRUE	Run as Sequence
PSTATMODEL	IQUANT	4	Pstat Model
PSTATSECTION	LABEL	REF600-24079	Pstat Section
PSTATSERIALNO	LABEL	24079	Pstat Serial Number
CTRLMODE	IQUANT	1	Control Mode
ELECTROMETER	IQUANT	0	RE=0 or CS=1
IESTAB	IQUANT	2	I/E Stability
CASPEED	IQUANT	6	Control Amp Speed
CONVENTION	IQUANT	1	Current Convention
ICHRANGE	IQUANT	2	Ich Range
ICHRANGEMODE	TOGGLE	F	Ich Auto Range
ICHOFFSETENABLE	TOGGLE	F	Ich Offset Enable
ICHOFFSET	QUANT	0	Ich Offset (V)
ICHFILTER	IQUANT	2	Ich Filter
VCHRANGE	IQUANT	2	Vch Range
VCHRANGEMODE	TOGGLE	F	Vch Auto Range
VCHOFFSETENABLE	TOGGLE	F	Vch Offset Enable
VCHOFFSET	QUANT	0	Vch Offset (V)
VCHFILTER	IQUANT	2	Vch Filter
ACHRANGE	IQUANT	2	Ach Range
ACHOFFSETENABLE	TOGGLE	F	Ach Offset Enable
ACHOFFSET	QUANT	0	Ach Offset (V)
ACHFILTER	IQUANT	1	Ach Filter
IERANGELOWERLIMIT	IQUANT	1	I/E Range Lower Limit
IERANGEMODE	TOGGLE	F	I/E AutoRange
IERANGE	IQUANT	6	I/E Range
POSFEEDENABLE	TOGGLE	F	Positive Feedback IR Comp
POSFEEDRESISTANCE	QUANT	0	Positive Feedback Resistance (ohm)
ACHSELECT	IQUANT	0	Ach Select
SENSECABLEID	IQUANT	13	Sense Cable ID
PWRCABLEID	IQUANT	13	Power Cable ID
DCCALDATE	LABEL	6/30/2020	DC Calibration Date
ACCALDATE	LABEL	6/30/2020	AC Calibration Date
THERMOSELECT	IQUANT	1	Thermo Select
FRAMEWORKVERSION	LABEL	7.8.2	Framework Version
INSTRUMENTVERSION	LABEL	4.40	Instrument Version
CURVE	TABLE	101
	Pt	T	Vfwd	Vrev	Vstep	Ifwd	Irev	Idif	Sig	Ach	IERange	Over	Temp
	#	s	V	V	V	A	A	A	V	V	#	bits	deg C
	0	0.1	-3.24914E-001	-3.74911E-001	-3.49912E-001	-8.79654E-009	-3.72285E-008	2.84319E-008	-3.75000E-001	4.05206E-004	6	..........a	-327.68
	1	0.2	-3.22886E-001	-3.72925E-001	-3.47905E-001	2.71860E-009	-3.26846E-008	3.54032E-008	-3.73000E-001	3.91206E-004	6	..........a	-327.68
	2	0.3	-3.20931E-001	-3.70809E-001	-3.45870E-001	5.02256E-009	-3.09414E-008	3.59639E-008	-3.71000E-001	3.94706E-004	6	..........a	-327.68
	3	0.4	-3.18861E-001	-3.68981E-001	-3.43921E-001	6.20637E-009	-2.97535E-008	3.59599E-008	-3.69000E-001	4.03206E-004	6	..........a	-327.68
	4	0.5	-3.16905E-001	-3.66901E-001	-3.41903E-001	6.83579E-009	-2.88811E-008	3.57169E-008	-3.67000E-001	3.95206E-004	6	..........a	-327.68
	5	0.6	-3.14878E-001	-3.64924E-001	-3.39901E-001	7.63855E-009	-2.83514E-008	3.59899E-008	-3.65000E-001	4.00539E-004	6	..........a	-327.68
	6	0.7	-3.12929E-001	-3.62836E-001	-3.37882E-001	8.19063E-009	-2.77293E-008	3.59199E-008	-3.63000E-001	3.96873E-004	6	..........a	-327.68
	7	0.8	-3.10891E-001	-3.60930E-001	-3.35911E-001	8.55101E-009	-2.71565E-008	3.57075E-008	-3.61000E-001	3.96373E-004	6	..........a	-327.68
	8	0.9	-3.08890E-001	-3.58882E-001	-3.33886E-001	8.80537E-009	-2.65575E-008	3.53628E-008	-3.59000E-001	3.91373E-004	6	..........a	-327.68
	9	1	-3.06853E-001	-3.56928E-001	-3.31890E-001	9.39178E-009	-2.62604E-008	3.56522E-008	-3.57000E-001	3.87706E-004	6	..........a	-327.68
	10	1.1	-3.04947E-001	-3.54862E-001	-3.29905E-001	9.91118E-009	-2.58424E-008	3.57536E-008	-3.55000E-001	3.93206E-004	6	..........a	-327.68
	11	1.2	-3.02917E-001	-3.52940E-001	-3.27928E-001	1.01249E-008	-2.57194E-008	3.58442E-008	-3.53000E-001	3.89373E-004	6	..........a	-327.68
	12	1.3	-3.00947E-001	-3.50894E-001	-3.25921E-001	1.03759E-008	-2.52860E-008	3.56619E-008	-3.51000E-001	3.99539E-004	6	..........a	-327.68
	13	1.4	-2.98882E-001	-3.48929E-001	-3.23906E-001	1.05513E-008	-2.49419E-008	3.54932E-008	-3.49000E-001	4.02206E-004	6	..........a	-327.68
	14	1.5	-2.96935E-001	-3.46894E-001	-3.21914E-001	1.10800E-008	-2.47172E-008	3.57972E-008	-3.47000E-001	3.99873E-004	6	..........a	-327.68
	15	1.6	-2.94922E-001	-3.45034E-001	-3.19978E-001	1.15454E-008	-2.43578E-008	3.59032E-008	-3.45000E-001	3.86539E-004	6	..........a	-327.68
	16	1.7	-2.92840E-001	-3.42854E-001	-3.17847E-001	1.19411E-008	-2.42322E-008	3.61733E-008	-3.43000E-001	3.93873E-004	6	..........a	-327.68
	17	1.8	-2.90839E-001	-3.40939E-001	-3.15889E-001	1.24078E-008	-2.41978E-008	3.66057E-008	-3.41000E-001	3.98373E-004	6	..........a	-327.68
	18	1.9	-2.88941E-001	-3.38848E-001	-3.13895E-001	1.27675E-008	-2.38591E-008	3.66267E-008	-3.39000E-001	4.16373E-004	6	..........a	-327.68
	19	2	-2.86891E-001	-3.36936E-001	-3.11913E-001	1.30196E-008	-2.36618E-008	3.66813E-008	-3.37000E-001	4.09039E-004	6	..........a	-327.68
	20	2.1	-2.84897E-001	-3.34888E-001	-3.09892E-001	1.34566E-008	-2.37208E-008	3.71774E-008	-3.35000E-001	4.15373E-004	6	..........a	-327.68
	21	2.2	-2.82848E-001	-3.32922E-001	-3.07885E-001	1.37443E-008	-2.34121E-008	3.71564E-008	-3.33000E-001	4.03706E-004	6	..........a	-327.68
	22	2.3	-2.80975E-001	-3.30842E-001	-3.05908E-001	1.43191E-008	-2.34284E-008	3.77475E-008	-3.31000E-001	4.07373E-004	6	..........a	-327.68
	23	2.4	-2.78905E-001	-3.28945E-001	-3.03925E-001	1.44461E-008	-2.32377E-008	3.76838E-008	-3.29000E-001	4.12039E-004	6	..........a	-327.68
	24	2.5	-2.76918E-001	-3.26908E-001	-3.01913E-001	1.49388E-008	-2.34514E-008	3.83902E-008	-3.27000E-001	4.11206E-004	6	..........a	-327.68
	25	2.6	-2.74865E-001	-3.24927E-001	-2.99896E-001	1.53399E-008	-2.33581E-008	3.86979E-008	-3.25000E-001	4.10706E-004	6	..........a	-327.68
	26	2.7	-2.72925E-001	-3.22891E-001	-2.97908E-001	1.57959E-008	-2.32074E-008	3.90033E-008	-3.23000E-001	4.06873E-004	6	..........a	-327.68
	27	2.8	-2.70916E-001	-3.20922E-001	-2.95919E-001	1.61216E-008	-2.32670E-008	3.93887E-008	-3.21000E-001	3.96706E-004	6	..........a	-327.68
	28	2.9	-2.68931E-001	-3.18890E-001	-2.93910E-001	1.63900E-008	-2.32567E-008	3.96467E-008	-3.19000E-001	3.99873E-004	6	..........a	-327.68
	29	3	-2.66807E-001	-3.16892E-001	-2.91850E-001	1.67264E-008	-2.31864E-008	3.99127E-008	-3.17000E-001	4.01873E-004	6	..........a	-327.68
	30	3.1	-2.64944E-001	-3.14890E-001	-2.89917E-001	1.71521E-008	-2.33681E-008	4.05202E-008	-3.15000E-001	4.19373E-004	6	..........a	-327.68
	31	3.2	-2.62905E-001	-3.12915E-001	-2.87910E-001	1.74125E-008	-2.34967E-008	4.09092E-008	-3.13000E-001	4.09206E-004	6	..........a	-327.68
	32	3.3	-2.60896E-001	-3.10884E-001	-2.85890E-001	1.77708E-008	-2.33484E-008	4.11192E-008	-3.11000E-001	3.95373E-004	6	..........a	-327.68
	33	3.4	-2.58843E-001	-3.08926E-001	-2.83885E-001	1.79355E-008	-2.34061E-008	4.13416E-008	-3.09000E-001	3.99873E-004	6	..........a	-327.68
	34	3.5	-2.56924E-001	-3.06852E-001	-2.81888E-001	1.83319E-008	-2.34677E-008	4.17997E-008	-3.07000E-001	4.03539E-004	6	..........a	-327.68
	35	3.6	-2.54911E-001	-3.04962E-001	-2.79936E-001	1.85749E-008	-2.34734E-008	4.20484E-008	-3.05000E-001	4.16039E-004	6	..........a	-327.68
	36	3.7	-2.52934E-001	-3.02912E-001	-2.77923E-001	1.86116E-008	-2.36424E-008	4.22540E-008	-3.03000E-001	4.12706E-004	6	..........a	-327.68
	37	3.8	-2.50881E-001	-3.00938E-001	-2.75909E-001	1.87936E-008	-2.35244E-008	4.23180E-008	-3.01000E-001	4.06873E-004	6	..........a	-327.68
	38	3.9	-2.48923E-001	-2.98888E-001	-2.73905E-001	1.88460E-008	-2.34194E-008	4.22654E-008	-2.99000E-001	4.14206E-004	6	..........a	-327.68
	39	4	-2.46911E-001	-2.96938E-001	-2.71924E-001	1.89050E-008	-2.36018E-008	4.25067E-008	-2.97000E-001	3.99706E-004	6	..........a	-327.68
	40	4.1	-2.44929E-001	-2.94909E-001	-2.69919E-001	1.90863E-008	-2.35461E-008	4.26324E-008	-2.95000E-001	4.14873E-004	6	..........a	-327.68
	41	4.2	-2.42804E-001	-2.92862E-001	-2.67833E-001	1.91327E-008	-2.35327E-008	4.26654E-008	-2.93000E-001	4.16873E-004	6	..........a	-327.68
	42	4.3	-2.40954E-001	-2.90830E-001	-2.65892E-001	1.90527E-008	-2.36604E-008	4.27131E-008	-2.91000E-001	4.19373E-004	6	..........a	-327.68
	43	4.4	-2.38906E-001	-2.88927E-001	-2.63917E-001	1.88657E-008	-2.34161E-008	4.22817E-008	-2.89000E-001	4.06539E-004	6	..........a	-327.68
	44	4.5	-2.36899E-001	-2.86878E-001	-2.61888E-001	1.90233E-008	-2.32300E-008	4.22534E-008	-2.87000E-001	4.05039E-004	6	..........a	-327.68
	45	4.6	-2.34842E-001	-2.84939E-001	-2.59890E-001	1.88373E-008	-2.30470E-008	4.18843E-008	-2.85000E-001	4.04539E-004	6	..........a	-327.68
	46	4.7	-2.32927E-001	-2.82843E-001	-2.57885E-001	1.87856E-008	-2.27066E-008	4.14923E-008	-2.83000E-001	4.14873E-004	6	..........a	-327.68
	47	4.8	-2.30891E-001	-2.80978E-001	-2.55934E-001	1.87163E-008	-2.27486E-008	4.14649E-008	-2.81000E-001	4.00373E-004	6	..........a	-327.68
	48	4.9	-2.28914E-001	-2.78895E-001	-2.53904E-001	1.88526E-008	-2.24269E-008	4.12796E-008	-2.79000E-001	4.06539E-004	6	..........a	-327.68
	49	5	-2.26856E-001	-2.76928E-001	-2.51892E-001	1.84126E-008	-2.23276E-008	4.07402E-008	-2.77000E-001	4.04373E-004	6	..........a	-327.68
	50	5.1	-2.24917E-001	-2.74882E-001	-2.49899E-001	1.84139E-008	-2.17892E-008	4.02031E-008	-2.75000E-001	3.96373E-004	6	..........a	-327.68
	51	5.2	-2.22905E-001	-2.72930E-001	-2.47918E-001	1.84299E-008	-2.15778E-008	4.00078E-008	-2.73000E-001	3.95373E-004	6	..........a	-327.68
	52	5.3	-2.20919E-001	-2.70902E-001	-2.45910E-001	1.82756E-008	-2.13475E-008	3.96230E-008	-2.71000E-001	4.02706E-004	6	..........a	-327.68
	53	5.4	-2.18893E-001	-2.68918E-001	-2.43905E-001	1.81292E-008	-2.09961E-008	3.91253E-008	-2.69000E-001	4.08873E-004	6	..........a	-327.68
	54	5.5	-2.17027E-001	-2.66808E-001	-2.41918E-001	1.79939E-008	-2.07764E-008	3.87703E-008	-2.67000E-001	4.09706E-004	6	..........a	-327.68
	55	5.6	-2.14891E-001	-2.64965E-001	-2.39928E-001	1.78639E-008	-2.02157E-008	3.80795E-008	-2.65000E-001	4.10039E-004	6	..........a	-327.68
	56	5.7	-2.12917E-001	-2.62898E-001	-2.37907E-001	1.77538E-008	-1.98259E-008	3.75798E-008	-2.63000E-001	3.99873E-004	6	..........a	-327.68
	57	5.8	-2.10865E-001	-2.60904E-001	-2.35885E-001	1.78309E-008	-1.96566E-008	3.74874E-008	-2.61000E-001	4.05373E-004	6	..........a	-327.68
	58	5.9	-2.08905E-001	-2.58841E-001	-2.33873E-001	1.77565E-008	-1.91692E-008	3.69257E-008	-2.59000E-001	3.97373E-004	6	..........a	-327.68
	59	6	-2.06900E-001	-2.56938E-001	-2.31919E-001	1.75845E-008	-1.90825E-008	3.66670E-008	-2.57000E-001	3.95373E-004	6	..........a	-327.68
	60	6.1	-2.04905E-001	-2.54903E-001	-2.29904E-001	1.73111E-008	-1.85971E-008	3.59082E-008	-2.55000E-001	4.11706E-004	6	..........a	-327.68
	61	6.2	-2.02847E-001	-2.52930E-001	-2.27889E-001	1.73631E-008	-1.84398E-008	3.58029E-008	-2.53000E-001	4.02539E-004	6	..........a	-327.68
	62	6.3	-2.00928E-001	-2.50870E-001	-2.25899E-001	1.73738E-008	-1.78217E-008	3.51955E-008	-2.51000E-001	3.93539E-004	6	..........a	-327.68
	63	6.4	-1.98917E-001	-2.48938E-001	-2.23928E-001	1.73121E-008	-1.77113E-008	3.50235E-008	-2.49000E-001	3.95706E-004	6	..........a	-327.68
	64	6.5	-1.96921E-001	-2.46905E-001	-2.21913E-001	1.72421E-008	-1.73126E-008	3.45547E-008	-2.47000E-001	3.97706E-004	6	..........a	-327.68
	65	6.6	-1.94892E-001	-2.44909E-001	-2.19901E-001	1.71888E-008	-1.69566E-008	3.41453E-008	-2.45000E-001	3.91539E-004	6	..........a	-327.68
	66	6.7	-1.92921E-001	-2.42796E-001	-2.17859E-001	1.71318E-008	-1.66582E-008	3.37900E-008	-2.43000E-001	3.95873E-004	6	..........a	-327.68
	67	6.8	-1.90889E-001	-2.40993E-001	-2.15941E-001	1.71438E-008	-1.64125E-008	3.35563E-008	-2.41000E-001	4.04039E-004	6	..........a	-327.68
	68	6.9	-1.88894E-001	-2.38874E-001	-2.13884E-001	1.71861E-008	-1.62728E-008	3.34589E-008	-2.39000E-001	4.07373E-004	6	..........a	-327.68
	69	7	-1.86848E-001	-2.36899E-001	-2.11873E-001	1.72031E-008	-1.59031E-008	3.31062E-008	-2.37000E-001	4.11373E-004	6	..........a	-327.68
	70	7.1	-1.84911E-001	-2.34833E-001	-2.09872E-001	1.72254E-008	-1.57831E-008	3.30085E-008	-2.35000E-001	4.09706E-004	6	..........a	-327.68
	71	7.2	-1.82882E-001	-2.32928E-001	-2.07905E-001	1.70388E-008	-1.55511E-008	3.25898E-008	-2.33000E-001	3.98373E-004	6	..........a	-327.68
	72	7.3	-1.80885E-001	-2.30869E-001	-2.05877E-001	1.71961E-008	-1.51540E-008	3.23501E-008	-2.31000E-001	3.98873E-004	6	..........a	-327.68
	73	7.4	-1.78833E-001	-2.28872E-001	-2.03853E-001	1.71364E-008	-1.50630E-008	3.21994E-008	-2.29000E-001	4.00373E-004	6	..........a	-327.68
	74	7.5	-1.76900E-001	-2.26851E-001	-2.01876E-001	1.71061E-008	-1.49333E-008	3.20394E-008	-2.27000E-001	4.03039E-004	6	..........a	-327.68
	75	7.6	-1.74896E-001	-2.24928E-001	-1.99912E-001	1.72464E-008	-1.46699E-008	3.19164E-008	-2.25000E-001	4.00373E-004	6	..........a	-327.68
	76	7.7	-1.72910E-001	-2.22892E-001	-1.97901E-001	1.72398E-008	-1.44503E-008	3.16900E-008	-2.23000E-001	3.94706E-004	6	..........a	-327.68
	77	7.8	-1.70864E-001	-2.20920E-001	-1.95892E-001	1.72111E-008	-1.41269E-008	3.13380E-008	-2.21000E-001	3.95873E-004	6	..........a	-327.68
	78	7.9	-1.68924E-001	-2.18887E-001	-1.93906E-001	1.72718E-008	-1.40565E-008	3.13283E-008	-2.19000E-001	3.96873E-004	6	..........a	-327.68
	79	8	-1.66916E-001	-2.17011E-001	-1.91964E-001	1.75388E-008	-1.40525E-008	3.15914E-008	-2.17000E-001	3.92706E-004	6	..........a	-327.68
	80	8.1	-1.64836E-001	-2.14848E-001	-1.89842E-001	1.73621E-008	-1.39265E-008	3.12886E-008	-2.15000E-001	4.06706E-004	6	..........a	-327.68
	81	8.2	-1.62820E-001	-2.12894E-001	-1.87857E-001	1.75138E-008	-1.38702E-008	3.13840E-008	-2.13000E-001	3.94373E-004	6	..........a	-327.68
	82	8.3	-1.60910E-001	-2.10839E-001	-1.85874E-001	1.74111E-008	-1.35318E-008	3.09429E-008	-2.11000E-001	3.84206E-004	6	..........a	-327.68
	83	8.4	-1.58890E-001	-2.08910E-001	-1.83900E-001	1.74445E-008	-1.34411E-008	3.08856E-008	-2.09000E-001	4.02039E-004	6	..........a	-327.68
	84	8.5	-1.56892E-001	-2.06884E-001	-1.81888E-001	1.75925E-008	-1.33688E-008	3.09613E-008	-2.07000E-001	4.10873E-004	6	..........a	-327.68
	85	8.6	-1.54846E-001	-2.04868E-001	-1.79857E-001	1.75645E-008	-1.32541E-008	3.08186E-008	-2.05000E-001	3.99373E-004	6	..........a	-327.68
	86	8.7	-1.52945E-001	-2.02846E-001	-1.77896E-001	1.75225E-008	-1.30141E-008	3.05366E-008	-2.03000E-001	3.98206E-004	6	..........a	-327.68
	87	8.8	-1.50905E-001	-2.00936E-001	-1.75921E-001	1.75715E-008	-1.27784E-008	3.03499E-008	-2.01000E-001	3.92373E-004	6	..........a	-327.68
	88	8.9	-1.48917E-001	-1.98911E-001	-1.73914E-001	1.77115E-008	-1.29797E-008	3.06912E-008	-1.99000E-001	4.02039E-004	6	..........a	-327.68
	89	9	-1.46878E-001	-1.96921E-001	-1.71900E-001	1.78742E-008	-1.28577E-008	3.07319E-008	-1.97000E-001	3.95206E-004	6	..........a	-327.68
	90	9.1	-1.44911E-001	-1.94889E-001	-1.69900E-001	1.78382E-008	-1.27854E-008	3.06236E-008	-1.95000E-001	3.92039E-004	6	..........a	-327.68
	91	9.2	-1.42910E-001	-1.92916E-001	-1.67913E-001	1.79239E-008	-1.26480E-008	3.05719E-008	-1.93000E-001	3.86206E-004	6	..........a	-327.68
	92	9.3	-1.40927E-001	-1.90878E-001	-1.65902E-001	1.79992E-008	-1.24577E-008	3.04569E-008	-1.91000E-001	3.97373E-004	6	..........a	-327.68
	93	9.4	-1.38807E-001	-1.88852E-001	-1.63830E-001	1.79025E-008	-1.24827E-008	3.03852E-008	-1.89000E-001	4.06373E-004	6	..........a	-327.68
	94	9.5	-1.36936E-001	-1.86836E-001	-1.61886E-001	1.81676E-008	-1.23613E-008	3.05289E-008	-1.87000E-001	4.20873E-004	6	..........a	-327.68
	95	9.6	-1.34892E-001	-1.84913E-001	-1.59902E-001	1.82106E-008	-1.23293E-008	3.05399E-008	-1.85000E-001	4.01539E-004	6	..........a	-327.68
	96	9.7	-1.32872E-001	-1.82846E-001	-1.57859E-001	1.82396E-008	-1.21536E-008	3.03932E-008	-1.83000E-001	3.96873E-004	6	..........a	-327.68
	97	9.8	-1.30836E-001	-1.80869E-001	-1.55852E-001	1.84723E-008	-1.20529E-008	3.05252E-008	-1.81000E-001	4.19039E-004	6	..........a	-327.68
	98	9.9	-1.28899E-001	-1.78843E-001	-1.53871E-001	1.86790E-008	-1.20940E-008	3.07729E-008	-1.79000E-001	4.06706E-004	6	..........a	-327.68
	99	10	-1.26903E-001	-1.76923E-001	-1.51913E-001	1.83803E-008	-1.19433E-008	3.03235E-008	-1.77000E-001	4.06039E-004	6	..........a	-327.68
	100	10.1	-1.24910E-001	-1.74897E-001	-1.49903E-001	1.83509E-008	-1.19256E-008	3.02765E-008	-1.75000E-001	4.13873E-004	6	..........a	-327.68
