EXPLAIN
TAG	SQUARE_WAVE
TITLE	LABEL	Square Wave Voltammetry	Test Identifier
DATE	LABEL	8/10/2020	Date
TIME	LABEL	12:51:24	Time
NOTES	NOTES	1	Notes...
	
PSTAT	PSTAT	REF600-24079	Potentiostat
VINIT	QUANT	-3.50000E-001	Initial E (V)
VFINAL	QUANT	-1.50000E-001	Final E (V)
STEPSIZE	QUANT	2.00000E+000	Step Size (mV)
TIMERRES	QUANT	3.33340E-005	&Timer Resolution
FREQUENCY	QUANT	2.50000E+002	Frequency (Hz)
PULSESIZE	QUANT	2.50000E+001	Pulse Size E (mV)
PULSEON	QUANT	4.00000E-003	Pulse &Time (s)
NOISEREJECT	TOGGLE	F	Noise Rejection
AREA	QUANT	2.00000E-002	Sample Area (cm^2)
IMODE	SELECTOR	1	I/E Range Mode
IRANGE	QUANT	1.00000E-002	Max Current (mA)
EQDELAY	IQUANT	10	Equil. Time (s)
IRCOMP	SELECTOR	0	IRComp
PFCOR	QUANT	5.00000E+001	PF Corr. (ohm)
CYCLES	IQUANT	101	C&ycles (#)
ELECTRODETYPE	SELECTOR	0	Electrode Type
STRIPPING	TOGGLE	F	Used for Stripping
POLARITY	TOGGLE	F	Signal Polarity
LINEFREQ	IQUANT	60	Line Frequency (Hz)
INTPERIOD	QUANT	3.3334E-005	Integration Period (s)
SEQUENCER	TOGGLE	TRUE	Run as Sequence
PSTATMODEL	IQUANT	4	Pstat Model
PSTATSECTION	LABEL	REF600-24079	Pstat Section
PSTATSERIALNO	LABEL	24079	Pstat Serial Number
CTRLMODE	IQUANT	1	Control Mode
ELECTROMETER	IQUANT	0	RE=0 or CS=1
IESTAB	IQUANT	2	I/E Stability
CASPEED	IQUANT	6	Control Amp Speed
CONVENTION	IQUANT	1	Current Convention
ICHRANGE	IQUANT	2	Ich Range
ICHRANGEMODE	TOGGLE	F	Ich Auto Range
ICHOFFSETENABLE	TOGGLE	F	Ich Offset Enable
ICHOFFSET	QUANT	0	Ich Offset (V)
ICHFILTER	IQUANT	2	Ich Filter
VCHRANGE	IQUANT	2	Vch Range
VCHRANGEMODE	TOGGLE	F	Vch Auto Range
VCHOFFSETENABLE	TOGGLE	F	Vch Offset Enable
VCHOFFSET	QUANT	0	Vch Offset (V)
VCHFILTER	IQUANT	1	Vch Filter
ACHRANGE	IQUANT	2	Ach Range
ACHOFFSETENABLE	TOGGLE	F	Ach Offset Enable
ACHOFFSET	QUANT	0	Ach Offset (V)
ACHFILTER	IQUANT	1	Ach Filter
IERANGELOWERLIMIT	IQUANT	1	I/E Range Lower Limit
IERANGEMODE	TOGGLE	F	I/E AutoRange
IERANGE	IQUANT	7	I/E Range
POSFEEDENABLE	TOGGLE	F	Positive Feedback IR Comp
POSFEEDRESISTANCE	QUANT	0	Positive Feedback Resistance (ohm)
ACHSELECT	IQUANT	0	Ach Select
SENSECABLEID	IQUANT	13	Sense Cable ID
PWRCABLEID	IQUANT	13	Power Cable ID
DCCALDATE	LABEL	6/30/2020	DC Calibration Date
ACCALDATE	LABEL	6/30/2020	AC Calibration Date
THERMOSELECT	IQUANT	1	Thermo Select
FRAMEWORKVERSION	LABEL	7.8.2	Framework Version
INSTRUMENTVERSION	LABEL	4.40	Instrument Version
CURVE	TABLE	101
	Pt	T	Vfwd	Vrev	Vstep	Ifwd	Irev	Idif	Sig	Ach	IERange	Over	Temp
	#	s	V	V	V	A	A	A	V	V	#	bits	deg C
	0	0.004	-3.26374E-001	-3.81433E-001	-3.53903E-001	4.27345E-008	-6.06260E-006	6.10533E-006	-3.75000E-001	4.03539E-004	7	..........a	-327.68
	1	0.008	-3.19170E-001	-3.79312E-001	-3.49241E-001	6.92942E-006	-6.95847E-006	1.38879E-005	-3.73000E-001	3.49373E-004	7	..........a	-327.68
	2	0.012	-3.17349E-001	-3.77245E-001	-3.47297E-001	7.06027E-006	-6.93788E-006	1.39982E-005	-3.71000E-001	3.78539E-004	7	..........a	-327.68
	3	0.016	-3.15341E-001	-3.75249E-001	-3.45295E-001	7.06744E-006	-6.92280E-006	1.39902E-005	-3.69000E-001	4.07706E-004	7	..........a	-327.68
	4	0.02	-3.13387E-001	-3.73316E-001	-3.43351E-001	7.07769E-006	-6.90955E-006	1.39872E-005	-3.67000E-001	3.86873E-004	7	..........a	-327.68
	5	0.024	-3.11320E-001	-3.71249E-001	-3.41285E-001	7.07744E-006	-6.90855E-006	1.39860E-005	-3.65000E-001	3.95206E-004	7	..........a	-327.68
	6	0.028	-3.09341E-001	-3.69224E-001	-3.39283E-001	7.08461E-006	-6.90088E-006	1.39855E-005	-3.63000E-001	3.61873E-004	7	..........a	-327.68
	7	0.032	-3.07374E-001	-3.67308E-001	-3.37341E-001	7.08461E-006	-6.89213E-006	1.39767E-005	-3.61000E-001	3.61873E-004	7	..........a	-327.68
	8	0.036	-3.05391E-001	-3.65274E-001	-3.35333E-001	7.08586E-006	-6.88454E-006	1.39704E-005	-3.59000E-001	3.86873E-004	7	..........a	-327.68
	9	0.04	-3.03383E-001	-3.63316E-001	-3.33349E-001	7.08569E-006	-6.88863E-006	1.39743E-005	-3.57000E-001	3.82706E-004	7	..........a	-327.68
	10	0.044	-3.01337E-001	-3.61262E-001	-3.31299E-001	7.08853E-006	-6.88296E-006	1.39715E-005	-3.55000E-001	3.99373E-004	7	..........a	-327.68
	11	0.048	-2.99370E-001	-3.59266E-001	-3.29318E-001	7.08669E-006	-6.87804E-006	1.39647E-005	-3.53000E-001	3.36873E-004	7	..........a	-327.68
	12	0.052	-2.97374E-001	-3.57253E-001	-3.27314E-001	7.08561E-006	-6.87596E-006	1.39616E-005	-3.51000E-001	3.86873E-004	7	..........a	-327.68
	13	0.056	-2.95337E-001	-3.55303E-001	-3.25320E-001	7.08944E-006	-6.87254E-006	1.39620E-005	-3.49000E-001	3.78539E-004	7	..........a	-327.68
	14	0.06	-2.93316E-001	-3.53270E-001	-3.23293E-001	7.08920E-006	-6.87146E-006	1.39607E-005	-3.47000E-001	4.07706E-004	7	..........a	-327.68
	15	0.064	-2.91328E-001	-3.51341E-001	-3.21335E-001	7.09228E-006	-6.86929E-006	1.39616E-005	-3.45000E-001	4.03539E-004	7	..........a	-327.68
	16	0.068	-2.89370E-001	-3.49333E-001	-3.19351E-001	7.09320E-006	-6.86912E-006	1.39623E-005	-3.43000E-001	3.86873E-004	7	..........a	-327.68
	17	0.072	-2.87341E-001	-3.47333E-001	-3.17337E-001	7.09536E-006	-6.86421E-006	1.39596E-005	-3.41000E-001	3.91039E-004	7	..........a	-327.68
	18	0.076	-2.85374E-001	-3.45237E-001	-3.15305E-001	7.09570E-006	-6.87062E-006	1.39663E-005	-3.39000E-001	3.41039E-004	7	..........a	-327.68
	19	0.08	-2.83403E-001	-3.43224E-001	-3.13314E-001	7.09770E-006	-6.86671E-006	1.39644E-005	-3.37000E-001	4.16039E-004	7	..........a	-327.68
	20	0.084	-2.81391E-001	-3.41274E-001	-3.11333E-001	7.09653E-006	-6.86596E-006	1.39625E-005	-3.35000E-001	3.74373E-004	7	..........a	-327.68
	21	0.088	-2.79374E-001	-3.39303E-001	-3.09339E-001	7.09820E-006	-6.86987E-006	1.39681E-005	-3.33000E-001	3.91039E-004	7	..........a	-327.68
	22	0.092	-2.77382E-001	-3.37212E-001	-3.07297E-001	7.10561E-006	-6.86612E-006	1.39717E-005	-3.31000E-001	3.41039E-004	7	..........a	-327.68
	23	0.096	-2.75366E-001	-3.35287E-001	-3.05326E-001	7.10478E-006	-6.86821E-006	1.39730E-005	-3.29000E-001	3.53539E-004	7	..........a	-327.68
	24	0.1	-2.73378E-001	-3.33303E-001	-3.03341E-001	7.11078E-006	-6.86454E-006	1.39753E-005	-3.27000E-001	3.82706E-004	7	..........a	-327.68
	25	0.104	-2.71358E-001	-3.31245E-001	-3.01301E-001	7.11428E-006	-6.86862E-006	1.39829E-005	-3.25000E-001	3.45206E-004	7	..........a	-327.68
	26	0.108	-2.69358E-001	-3.29245E-001	-2.99301E-001	7.11436E-006	-6.87079E-006	1.39852E-005	-3.23000E-001	3.53539E-004	7	..........a	-327.68
	27	0.112	-2.67362E-001	-3.27274E-001	-2.97318E-001	7.11895E-006	-6.87521E-006	1.39942E-005	-3.21000E-001	3.82706E-004	7	..........a	-327.68
	28	0.116	-2.65420E-001	-3.25328E-001	-2.95374E-001	7.12037E-006	-6.87496E-006	1.39953E-005	-3.19000E-001	3.61873E-004	7	..........a	-327.68
	29	0.12	-2.63407E-001	-3.23253E-001	-2.93330E-001	7.12662E-006	-6.87771E-006	1.40043E-005	-3.17000E-001	4.24373E-004	7	..........a	-327.68
	30	0.124	-2.61391E-001	-3.21283E-001	-2.91337E-001	7.12378E-006	-6.87404E-006	1.39978E-005	-3.15000E-001	3.61873E-004	7	..........a	-327.68
	31	0.128	-2.59391E-001	-3.19241E-001	-2.89316E-001	7.13053E-006	-6.87738E-006	1.40079E-005	-3.13000E-001	3.74373E-004	7	..........a	-327.68
	32	0.132	-2.57441E-001	-3.17257E-001	-2.87349E-001	7.13237E-006	-6.87738E-006	1.40097E-005	-3.11000E-001	3.78539E-004	7	..........a	-327.68
	33	0.136	-2.55449E-001	-3.15137E-001	-2.85293E-001	7.13937E-006	-6.88038E-006	1.40197E-005	-3.09000E-001	3.78539E-004	7	..........a	-327.68
	34	0.14	-2.53420E-001	-3.13228E-001	-2.83324E-001	7.14512E-006	-6.88238E-006	1.40275E-005	-3.07000E-001	3.53539E-004	7	..........a	-327.68
	35	0.144	-2.51416E-001	-3.11220E-001	-2.81318E-001	7.14529E-006	-6.88146E-006	1.40267E-005	-3.05000E-001	3.82706E-004	7	..........a	-327.68
	36	0.148	-2.49445E-001	-3.09195E-001	-2.79320E-001	7.14579E-006	-6.88296E-006	1.40287E-005	-3.03000E-001	3.70206E-004	7	..........a	-327.68
	37	0.152	-2.47462E-001	-3.07258E-001	-2.77360E-001	7.14870E-006	-6.88379E-006	1.40325E-005	-3.01000E-001	3.57706E-004	7	..........a	-327.68
	38	0.156	-2.45437E-001	-3.05266E-001	-2.75351E-001	7.15504E-006	-6.88479E-006	1.40398E-005	-2.99000E-001	4.03539E-004	7	..........a	-327.68
	39	0.16	-2.43470E-001	-3.03216E-001	-2.73343E-001	7.15462E-006	-6.88788E-006	1.40425E-005	-2.97000E-001	3.70206E-004	7	..........a	-327.68
	40	0.164	-2.41408E-001	-3.01241E-001	-2.71324E-001	7.15937E-006	-6.87996E-006	1.40393E-005	-2.95000E-001	3.82706E-004	7	..........a	-327.68
	41	0.168	-2.39453E-001	-2.99212E-001	-2.69333E-001	7.15812E-006	-6.88104E-006	1.40392E-005	-2.93000E-001	4.36873E-004	7	..........a	-327.68
	42	0.172	-2.37416E-001	-2.97237E-001	-2.67326E-001	7.16112E-006	-6.88113E-006	1.40422E-005	-2.91000E-001	3.99373E-004	7	..........a	-327.68
	43	0.176	-2.35441E-001	-2.95241E-001	-2.65341E-001	7.15954E-006	-6.87788E-006	1.40374E-005	-2.89000E-001	3.70206E-004	7	..........a	-327.68
	44	0.18	-2.33458E-001	-2.93270E-001	-2.63364E-001	7.16012E-006	-6.87679E-006	1.40369E-005	-2.87000E-001	3.49373E-004	7	..........a	-327.68
	45	0.184	-2.31445E-001	-2.91203E-001	-2.61324E-001	7.16345E-006	-6.87663E-006	1.40401E-005	-2.85000E-001	4.16039E-004	7	..........a	-327.68
	46	0.188	-2.29483E-001	-2.89195E-001	-2.59339E-001	7.16070E-006	-6.87763E-006	1.40383E-005	-2.83000E-001	3.82706E-004	7	..........a	-327.68
	47	0.192	-2.27441E-001	-2.87183E-001	-2.57312E-001	7.16371E-006	-6.86929E-006	1.40330E-005	-2.81000E-001	3.86873E-004	7	..........a	-327.68
	48	0.196	-2.25474E-001	-2.85183E-001	-2.55328E-001	7.15437E-006	-6.86654E-006	1.40209E-005	-2.79000E-001	3.61873E-004	7	..........a	-327.68
	49	0.2	-2.23424E-001	-2.83191E-001	-2.53308E-001	7.15795E-006	-6.86104E-006	1.40190E-005	-2.77000E-001	3.70206E-004	7	..........a	-327.68
	50	0.204	-2.21424E-001	-2.81191E-001	-2.51308E-001	7.15637E-006	-6.85779E-006	1.40142E-005	-2.75000E-001	4.11873E-004	7	..........a	-327.68
	51	0.208	-2.19483E-001	-2.79224E-001	-2.49353E-001	7.14954E-006	-6.84737E-006	1.39969E-005	-2.73000E-001	3.82706E-004	7	..........a	-327.68
	52	0.212	-2.17458E-001	-2.77216E-001	-2.47337E-001	7.14212E-006	-6.84537E-006	1.39875E-005	-2.71000E-001	4.03539E-004	7	..........a	-327.68
	53	0.216	-2.15424E-001	-2.75207E-001	-2.45316E-001	7.14170E-006	-6.83837E-006	1.39801E-005	-2.69000E-001	3.41039E-004	7	..........a	-327.68
	54	0.22	-2.13437E-001	-2.73216E-001	-2.43326E-001	7.13903E-006	-6.83495E-006	1.39740E-005	-2.67000E-001	3.78539E-004	7	..........a	-327.68
	55	0.224	-2.11383E-001	-2.71228E-001	-2.41305E-001	7.13220E-006	-6.83054E-006	1.39627E-005	-2.65000E-001	4.11873E-004	7	..........a	-327.68
	56	0.228	-2.09462E-001	-2.69233E-001	-2.39347E-001	7.12962E-006	-6.82262E-006	1.39522E-005	-2.63000E-001	3.11873E-004	7	..........a	-327.68
	57	0.232	-2.07412E-001	-2.67195E-001	-2.37303E-001	7.11895E-006	-6.81520E-006	1.39341E-005	-2.61000E-001	3.66039E-004	7	..........a	-327.68
	58	0.236	-2.05374E-001	-2.65233E-001	-2.35303E-001	7.12228E-006	-6.81103E-006	1.39333E-005	-2.59000E-001	3.70206E-004	7	..........a	-327.68
	59	0.24	-2.03437E-001	-2.63224E-001	-2.33330E-001	7.11486E-006	-6.80653E-006	1.39214E-005	-2.57000E-001	3.86873E-004	7	..........a	-327.68
	60	0.244	-2.01433E-001	-2.61228E-001	-2.31330E-001	7.10603E-006	-6.79586E-006	1.39019E-005	-2.55000E-001	3.82706E-004	7	..........a	-327.68
	61	0.248	-1.99424E-001	-2.59216E-001	-2.29320E-001	7.10086E-006	-6.79386E-006	1.38947E-005	-2.53000E-001	3.16039E-004	7	..........a	-327.68
	62	0.252	-1.97391E-001	-2.57241E-001	-2.27316E-001	7.09603E-006	-6.78495E-006	1.38810E-005	-2.51000E-001	3.99373E-004	7	..........a	-327.68
	63	0.256	-1.95449E-001	-2.55258E-001	-2.25353E-001	7.09186E-006	-6.78470E-006	1.38766E-005	-2.49000E-001	3.41039E-004	7	..........a	-327.68
	64	0.26	-1.93441E-001	-2.53291E-001	-2.23366E-001	7.08119E-006	-6.77553E-006	1.38567E-005	-2.47000E-001	3.28539E-004	7	..........a	-327.68
	65	0.264	-1.91387E-001	-2.51328E-001	-2.21358E-001	7.08228E-006	-6.77053E-006	1.38528E-005	-2.45000E-001	4.11873E-004	7	..........a	-327.68
	66	0.268	-1.89378E-001	-2.49283E-001	-2.19330E-001	7.07269E-006	-6.76561E-006	1.38383E-005	-2.43000E-001	3.66039E-004	7	..........a	-327.68
	67	0.272	-1.87408E-001	-2.47249E-001	-2.17328E-001	7.07194E-006	-6.75978E-006	1.38317E-005	-2.41000E-001	3.99373E-004	7	..........a	-327.68
	68	0.276	-1.85387E-001	-2.45253E-001	-2.15320E-001	7.06544E-006	-6.75653E-006	1.38220E-005	-2.39000E-001	3.16039E-004	7	..........a	-327.68
	69	0.28	-1.83358E-001	-2.43274E-001	-2.13316E-001	7.06069E-006	-6.75219E-006	1.38129E-005	-2.37000E-001	3.45206E-004	7	..........a	-327.68
	70	0.284	-1.81374E-001	-2.41253E-001	-2.11314E-001	7.05911E-006	-6.74936E-006	1.38085E-005	-2.35000E-001	3.86873E-004	7	..........a	-327.68
	71	0.288	-1.79391E-001	-2.39295E-001	-2.09343E-001	7.05161E-006	-6.74744E-006	1.37990E-005	-2.33000E-001	3.70206E-004	7	..........a	-327.68
	72	0.292	-1.77358E-001	-2.37249E-001	-2.07303E-001	7.05136E-006	-6.74236E-006	1.37937E-005	-2.31000E-001	3.86873E-004	7	..........a	-327.68
	73	0.296	-1.75341E-001	-2.35295E-001	-2.05318E-001	7.04227E-006	-6.74069E-006	1.37830E-005	-2.29000E-001	3.82706E-004	7	..........a	-327.68
	74	0.3	-1.73358E-001	-2.33287E-001	-2.03322E-001	7.04486E-006	-6.73419E-006	1.37790E-005	-2.27000E-001	3.53539E-004	7	..........a	-327.68
	75	0.304	-1.71345E-001	-2.31320E-001	-2.01333E-001	7.03969E-006	-6.73119E-006	1.37709E-005	-2.25000E-001	3.82706E-004	7	..........a	-327.68
	76	0.308	-1.69374E-001	-2.29295E-001	-1.99335E-001	7.04052E-006	-6.72744E-006	1.37680E-005	-2.23000E-001	3.74373E-004	7	..........a	-327.68
	77	0.312	-1.67383E-001	-2.27287E-001	-1.97335E-001	7.03669E-006	-6.72952E-006	1.37662E-005	-2.21000E-001	3.99373E-004	7	..........a	-327.68
	78	0.316	-1.65378E-001	-2.25278E-001	-1.95328E-001	7.02985E-006	-6.72144E-006	1.37513E-005	-2.19000E-001	3.45206E-004	7	..........a	-327.68
	79	0.32	-1.63308E-001	-2.23299E-001	-1.93303E-001	7.02985E-006	-6.72302E-006	1.37529E-005	-2.17000E-001	3.61873E-004	7	..........a	-327.68
	80	0.324	-1.61358E-001	-2.21328E-001	-1.91343E-001	7.02719E-006	-6.72377E-006	1.37510E-005	-2.15000E-001	3.32706E-004	7	..........a	-327.68
	81	0.328	-1.59374E-001	-2.19341E-001	-1.89358E-001	7.02477E-006	-6.71994E-006	1.37447E-005	-2.13000E-001	3.70206E-004	7	..........a	-327.68
	82	0.332	-1.57333E-001	-2.17324E-001	-1.87328E-001	7.02060E-006	-6.71602E-006	1.37366E-005	-2.11000E-001	3.70206E-004	7	..........a	-327.68
	83	0.336	-1.55312E-001	-2.15266E-001	-1.85289E-001	7.02385E-006	-6.71585E-006	1.37397E-005	-2.09000E-001	3.74373E-004	7	..........a	-327.68
	84	0.34	-1.53316E-001	-2.13299E-001	-1.83308E-001	7.01952E-006	-6.71610E-006	1.37356E-005	-2.07000E-001	3.74373E-004	7	..........a	-327.68
	85	0.344	-1.51291E-001	-2.11328E-001	-1.81310E-001	7.02219E-006	-6.71627E-006	1.37385E-005	-2.05000E-001	3.82706E-004	7	..........a	-327.68
	86	0.348	-1.49308E-001	-2.09278E-001	-1.79293E-001	7.01752E-006	-6.71169E-006	1.37292E-005	-2.03000E-001	3.36873E-004	7	..........a	-327.68
	87	0.352	-1.47387E-001	-2.07308E-001	-1.77347E-001	7.01935E-006	-6.71310E-006	1.37325E-005	-2.01000E-001	3.82706E-004	7	..........a	-327.68
	88	0.356	-1.45366E-001	-2.05345E-001	-1.75355E-001	7.01994E-006	-6.71577E-006	1.37357E-005	-1.99000E-001	3.41039E-004	7	..........a	-327.68
	89	0.36	-1.43333E-001	-2.03341E-001	-1.73337E-001	7.01769E-006	-6.71435E-006	1.37320E-005	-1.97000E-001	3.74373E-004	7	..........a	-327.68
	90	0.364	-1.41262E-001	-2.01333E-001	-1.71297E-001	7.02169E-006	-6.71302E-006	1.37347E-005	-1.95000E-001	3.66039E-004	7	..........a	-327.68
	91	0.368	-1.39383E-001	-1.99295E-001	-1.69339E-001	7.01819E-006	-6.71452E-006	1.37327E-005	-1.93000E-001	3.57706E-004	7	..........a	-327.68
	92	0.372	-1.37291E-001	-1.97324E-001	-1.67308E-001	7.02144E-006	-6.71235E-006	1.37338E-005	-1.91000E-001	3.61873E-004	7	..........a	-327.68
	93	0.376	-1.35291E-001	-1.95366E-001	-1.65328E-001	7.02085E-006	-6.71477E-006	1.37356E-005	-1.89000E-001	3.53539E-004	7	..........a	-327.68
	94	0.38	-1.33345E-001	-1.93366E-001	-1.63355E-001	7.01927E-006	-6.71035E-006	1.37296E-005	-1.87000E-001	3.16039E-004	7	..........a	-327.68
	95	0.384	-1.31353E-001	-1.91324E-001	-1.61339E-001	7.02194E-006	-6.71052E-006	1.37325E-005	-1.85000E-001	3.53539E-004	7	..........a	-327.68
	96	0.388	-1.29345E-001	-1.89320E-001	-1.59333E-001	7.02185E-006	-6.71427E-006	1.37361E-005	-1.83000E-001	3.78539E-004	7	..........a	-327.68
	97	0.392	-1.27341E-001	-1.87291E-001	-1.57316E-001	7.02402E-006	-6.71502E-006	1.37390E-005	-1.81000E-001	3.20206E-004	7	..........a	-327.68
	98	0.396	-1.25278E-001	-1.85324E-001	-1.55301E-001	7.01977E-006	-6.71702E-006	1.37368E-005	-1.79000E-001	3.49373E-004	7	..........a	-327.68
	99	0.4	-1.23341E-001	-1.83345E-001	-1.53343E-001	7.03002E-006	-6.71677E-006	1.37468E-005	-1.77000E-001	3.95206E-004	7	..........a	-327.68
	100	0.404	-1.21316E-001	-1.81316E-001	-1.51316E-001	7.02569E-006	-6.71569E-006	1.37414E-005	-1.75000E-001	3.91039E-004	7	..........a	-327.68
