EXPLAIN
TAG	SQUARE_WAVE
TITLE	LABEL	Square Wave Voltammetry	Test Identifier
DATE	LABEL	8/31/2020	Date
TIME	LABEL	12:37:53	Time
NOTES	NOTES	1	Notes...
	
PSTAT	PSTAT	REF600-24079	Potentiostat
VINIT	QUANT	-3.50000E-001	Initial E (V)
VFINAL	QUANT	-1.50000E-001	Final E (V)
STEPSIZE	QUANT	2.00000E+000	Step Size (mV)
TIMERRES	QUANT	3.33340E-005	&Timer Resolution
FREQUENCY	QUANT	2.50000E+001	Frequency (Hz)
PULSESIZE	QUANT	2.50000E+001	Pulse Size E (mV)
PULSEON	QUANT	4.00000E-002	Pulse &Time (s)
NOISEREJECT	TOGGLE	F	Noise Rejection
AREA	QUANT	2.00000E-002	Sample Area (cm^2)
IMODE	SELECTOR	1	I/E Range Mode
IRANGE	QUANT	1.00000E-003	Max Current (mA)
EQDELAY	IQUANT	10	Equil. Time (s)
IRCOMP	SELECTOR	0	IRComp
PFCOR	QUANT	5.00000E+001	PF Corr. (ohm)
CYCLES	IQUANT	101	C&ycles (#)
ELECTRODETYPE	SELECTOR	0	Electrode Type
STRIPPING	TOGGLE	F	Used for Stripping
POLARITY	TOGGLE	F	Signal Polarity
LINEFREQ	IQUANT	60	Line Frequency (Hz)
INTPERIOD	QUANT	3.3334E-005	Integration Period (s)
SEQUENCER	TOGGLE	TRUE	Run as Sequence
PSTATMODEL	IQUANT	4	Pstat Model
PSTATSECTION	LABEL	REF600-24079	Pstat Section
PSTATSERIALNO	LABEL	24079	Pstat Serial Number
CTRLMODE	IQUANT	1	Control Mode
ELECTROMETER	IQUANT	0	RE=0 or CS=1
IESTAB	IQUANT	2	I/E Stability
CASPEED	IQUANT	6	Control Amp Speed
CONVENTION	IQUANT	1	Current Convention
ICHRANGE	IQUANT	2	Ich Range
ICHRANGEMODE	TOGGLE	F	Ich Auto Range
ICHOFFSETENABLE	TOGGLE	F	Ich Offset Enable
ICHOFFSET	QUANT	0	Ich Offset (V)
ICHFILTER	IQUANT	2	Ich Filter
VCHRANGE	IQUANT	2	Vch Range
VCHRANGEMODE	TOGGLE	F	Vch Auto Range
VCHOFFSETENABLE	TOGGLE	F	Vch Offset Enable
VCHOFFSET	QUANT	0	Vch Offset (V)
VCHFILTER	IQUANT	2	Vch Filter
ACHRANGE	IQUANT	2	Ach Range
ACHOFFSETENABLE	TOGGLE	F	Ach Offset Enable
ACHOFFSET	QUANT	0	Ach Offset (V)
ACHFILTER	IQUANT	1	Ach Filter
IERANGELOWERLIMIT	IQUANT	1	I/E Range Lower Limit
IERANGEMODE	TOGGLE	F	I/E AutoRange
IERANGE	IQUANT	6	I/E Range
POSFEEDENABLE	TOGGLE	F	Positive Feedback IR Comp
POSFEEDRESISTANCE	QUANT	0	Positive Feedback Resistance (ohm)
ACHSELECT	IQUANT	0	Ach Select
SENSECABLEID	IQUANT	13	Sense Cable ID
PWRCABLEID	IQUANT	13	Power Cable ID
DCCALDATE	LABEL	6/30/2020	DC Calibration Date
ACCALDATE	LABEL	6/30/2020	AC Calibration Date
THERMOSELECT	IQUANT	1	Thermo Select
FRAMEWORKVERSION	LABEL	7.8.2	Framework Version
INSTRUMENTVERSION	LABEL	4.40	Instrument Version
CURVE	TABLE	101
	Pt	T	Vfwd	Vrev	Vstep	Ifwd	Irev	Idif	Sig	Ach	IERange	Over	Temp
	#	s	V	V	V	A	A	A	V	V	#	bits	deg C
	0	0.04	-3.24882E-001	-3.75279E-001	-3.50081E-001	-8.81304E-009	-3.58248E-008	2.70118E-008	-3.75000E-001	3.40623E-004	6	..........a	-327.68
	1	0.08	-3.22474E-001	-3.73278E-001	-3.47876E-001	-1.45446E-008	-2.44050E-008	9.86042E-009	-3.73000E-001	3.43956E-004	6	..........a	-327.68
	2	0.12	-3.20458E-001	-3.71233E-001	-3.45846E-001	-9.17308E-009	-2.02637E-008	1.10906E-008	-3.71000E-001	3.31039E-004	6	..........a	-327.68
	3	0.16	-3.18421E-001	-3.69207E-001	-3.43814E-001	-5.05173E-009	-1.72383E-008	1.21866E-008	-3.69000E-001	3.39789E-004	6	..........a	-327.68
	4	0.2	-3.16425E-001	-3.67286E-001	-3.41856E-001	-3.08814E-009	-1.69541E-008	1.38659E-008	-3.67000E-001	3.46456E-004	6	..........a	-327.68
	5	0.24	-3.14471E-001	-3.65274E-001	-3.39873E-001	-1.04288E-009	-1.51397E-008	1.40968E-008	-3.65000E-001	3.38539E-004	6	..........a	-327.68
	6	0.28	-3.12460E-001	-3.63223E-001	-3.37841E-001	2.14419E-009	-1.48430E-008	1.69872E-008	-3.63000E-001	3.44789E-004	6	..........a	-327.68
	7	0.32	-3.10433E-001	-3.61241E-001	-3.35837E-001	2.74010E-009	-1.47463E-008	1.74864E-008	-3.61000E-001	3.40623E-004	6	..........a	-327.68
	8	0.36	-3.08427E-001	-3.59261E-001	-3.33844E-001	5.66047E-009	-1.29752E-008	1.86357E-008	-3.59000E-001	3.56039E-004	6	..........a	-327.68
	9	0.4	-3.06485E-001	-3.57269E-001	-3.31877E-001	7.19733E-009	-1.42337E-008	2.14311E-008	-3.57000E-001	3.26873E-004	6	..........a	-327.68
	10	0.44	-3.04475E-001	-3.55256E-001	-3.29866E-001	8.63418E-009	-1.29352E-008	2.15694E-008	-3.55000E-001	3.31456E-004	6	..........a	-327.68
	11	0.48	-3.02442E-001	-3.53268E-001	-3.27855E-001	1.21371E-008	-1.37845E-008	2.59216E-008	-3.53000E-001	3.50623E-004	6	..........a	-327.68
	12	0.52	-3.00451E-001	-3.51271E-001	-3.25861E-001	1.25905E-008	-1.45179E-008	2.71084E-008	-3.51000E-001	3.32706E-004	6	..........a	-327.68
	13	0.56	-2.98463E-001	-3.49267E-001	-3.23865E-001	1.58734E-008	-1.33920E-008	2.92654E-008	-3.49000E-001	3.53123E-004	6	..........a	-327.68
	14	0.6	-2.96467E-001	-3.47251E-001	-3.21859E-001	1.83179E-008	-1.52605E-008	3.35784E-008	-3.47000E-001	3.44373E-004	6	..........a	-327.68
	15	0.64	-2.94421E-001	-3.45258E-001	-3.19839E-001	2.05465E-008	-1.45371E-008	3.50836E-008	-3.45000E-001	3.46039E-004	6	..........a	-327.68
	16	0.68	-2.92411E-001	-3.43264E-001	-3.17838E-001	2.49346E-008	-1.59940E-008	4.09285E-008	-3.43000E-001	3.33956E-004	6	..........a	-327.68
	17	0.72	-2.90478E-001	-3.41277E-001	-3.15877E-001	2.64881E-008	-1.67224E-008	4.32105E-008	-3.41000E-001	3.53123E-004	6	..........a	-327.68
	18	0.76	-2.88453E-001	-3.39244E-001	-3.13848E-001	3.05220E-008	-1.69849E-008	4.75069E-008	-3.39000E-001	3.40623E-004	6	..........a	-327.68
	19	0.8	-2.86391E-001	-3.37227E-001	-3.11809E-001	3.37824E-008	-1.95877E-008	5.33701E-008	-3.37000E-001	3.37706E-004	6	..........a	-327.68
	20	0.84	-2.84405E-001	-3.35254E-001	-3.09830E-001	3.62960E-008	-1.97678E-008	5.60638E-008	-3.35000E-001	3.20206E-004	6	..........a	-327.68
	21	0.88	-2.82438E-001	-3.33240E-001	-3.07839E-001	4.16017E-008	-2.16447E-008	6.32464E-008	-3.33000E-001	3.47289E-004	6	..........a	-327.68
	22	0.92	-2.80441E-001	-3.31236E-001	-3.05838E-001	4.40145E-008	-2.40208E-008	6.80353E-008	-3.31000E-001	3.20206E-004	6	..........a	-327.68
	23	0.96	-2.78405E-001	-3.29235E-001	-3.03820E-001	4.89393E-008	-2.48809E-008	7.38202E-008	-3.29000E-001	3.25206E-004	6	..........a	-327.68
	24	1	-2.76413E-001	-3.27271E-001	-3.01842E-001	5.28140E-008	-2.81963E-008	8.10103E-008	-3.27000E-001	3.34789E-004	6	..........a	-327.68
	25	1.04	-2.74425E-001	-3.25252E-001	-2.99838E-001	5.65769E-008	-2.97974E-008	8.63743E-008	-3.25000E-001	3.17706E-004	6	..........a	-327.68
	26	1.08	-2.72438E-001	-3.23253E-001	-2.97846E-001	6.19143E-008	-3.33487E-008	9.52629E-008	-3.23000E-001	3.27706E-004	6	..........a	-327.68
	27	1.12	-2.70410E-001	-3.21276E-001	-2.95843E-001	6.58048E-008	-3.59548E-008	1.01760E-007	-3.21000E-001	3.40623E-004	6	..........a	-327.68
	28	1.16	-2.68417E-001	-3.19284E-001	-2.93851E-001	7.07687E-008	-3.85652E-008	1.09334E-007	-3.19000E-001	3.33539E-004	6	..........a	-327.68
	29	1.2	-2.66439E-001	-3.17282E-001	-2.91861E-001	7.50218E-008	-4.28699E-008	1.17892E-007	-3.17000E-001	3.38123E-004	6	..........a	-327.68
	30	1.24	-2.64425E-001	-3.15270E-001	-2.89848E-001	7.89131E-008	-4.53227E-008	1.24236E-007	-3.15000E-001	3.20623E-004	6	..........a	-327.68
	31	1.28	-2.62378E-001	-3.13256E-001	-2.87817E-001	8.41363E-008	-4.91032E-008	1.33239E-007	-3.13000E-001	3.53956E-004	6	..........a	-327.68
	32	1.32	-2.60388E-001	-3.11291E-001	-2.85839E-001	8.70375E-008	-5.32237E-008	1.40261E-007	-3.11000E-001	3.46456E-004	6	..........a	-327.68
	33	1.36	-2.58432E-001	-3.09250E-001	-2.83841E-001	9.15997E-008	-5.56923E-008	1.47292E-007	-3.09000E-001	3.60623E-004	6	..........a	-327.68
	34	1.4	-2.56406E-001	-3.07247E-001	-2.81826E-001	9.49810E-008	-6.04138E-008	1.55395E-007	-3.07000E-001	3.44373E-004	6	..........a	-327.68
	35	1.44	-2.54366E-001	-3.05264E-001	-2.79815E-001	9.74413E-008	-6.32866E-008	1.60728E-007	-3.05000E-001	3.36873E-004	6	..........a	-327.68
	36	1.48	-2.52396E-001	-3.03293E-001	-2.77844E-001	1.01225E-007	-6.72246E-008	1.68450E-007	-3.03000E-001	3.30623E-004	6	..........a	-327.68
	37	1.52	-2.50421E-001	-3.01282E-001	-2.75852E-001	1.02031E-007	-7.08501E-008	1.72881E-007	-3.01000E-001	3.31456E-004	6	..........a	-327.68
	38	1.56	-2.48405E-001	-2.99258E-001	-2.73831E-001	1.04301E-007	-7.28045E-008	1.77106E-007	-2.99000E-001	3.25206E-004	6	..........a	-327.68
	39	1.6	-2.46371E-001	-2.97258E-001	-2.71814E-001	1.05972E-007	-7.70842E-008	1.83057E-007	-2.97000E-001	3.32289E-004	6	..........a	-327.68
	40	1.64	-2.44388E-001	-2.95274E-001	-2.69831E-001	1.06191E-007	-7.90845E-008	1.85275E-007	-2.95000E-001	3.33123E-004	6	..........a	-327.68
	41	1.68	-2.42440E-001	-2.93250E-001	-2.67845E-001	1.07473E-007	-8.15598E-008	1.89033E-007	-2.93000E-001	3.44373E-004	6	..........a	-327.68
	42	1.72	-2.40396E-001	-2.91244E-001	-2.65820E-001	1.05682E-007	-8.42060E-008	1.89888E-007	-2.91000E-001	3.34373E-004	6	..........a	-327.68
	43	1.76	-2.38369E-001	-2.89260E-001	-2.63815E-001	1.05580E-007	-8.45910E-008	1.90171E-007	-2.89000E-001	3.41039E-004	6	..........a	-327.68
	44	1.8	-2.36376E-001	-2.87277E-001	-2.61827E-001	1.03770E-007	-8.72930E-008	1.91063E-007	-2.87000E-001	3.31456E-004	6	..........a	-327.68
	45	1.84	-2.34404E-001	-2.85288E-001	-2.59846E-001	1.01763E-007	-8.69863E-008	1.88749E-007	-2.85000E-001	3.53123E-004	6	..........a	-327.68
	46	1.88	-2.32395E-001	-2.83239E-001	-2.57817E-001	1.00320E-007	-8.71913E-008	1.87511E-007	-2.83000E-001	3.50206E-004	6	..........a	-327.68
	47	1.92	-2.30365E-001	-2.81255E-001	-2.55810E-001	9.60120E-008	-8.74689E-008	1.83481E-007	-2.81000E-001	3.37706E-004	6	..........a	-327.68
	48	1.96	-2.28378E-001	-2.79270E-001	-2.53824E-001	9.38767E-008	-8.53994E-008	1.79276E-007	-2.79000E-001	3.46873E-004	6	..........a	-327.68
	49	2	-2.26420E-001	-2.77261E-001	-2.51840E-001	9.04088E-008	-8.52986E-008	1.75707E-007	-2.77000E-001	3.30206E-004	6	..........a	-327.68
	50	2.04	-2.24422E-001	-2.75255E-001	-2.49838E-001	8.56873E-008	-8.35434E-008	1.69231E-007	-2.75000E-001	3.31873E-004	6	..........a	-327.68
	51	2.08	-2.22396E-001	-2.73251E-001	-2.47823E-001	8.31237E-008	-8.13639E-008	1.64488E-007	-2.73000E-001	3.34789E-004	6	..........a	-327.68
	52	2.12	-2.20404E-001	-2.71263E-001	-2.45833E-001	7.79538E-008	-7.93904E-008	1.57344E-007	-2.71000E-001	3.45623E-004	6	..........a	-327.68
	53	2.16	-2.18413E-001	-2.69256E-001	-2.43834E-001	7.41592E-008	-7.56399E-008	1.49799E-007	-2.69000E-001	3.43956E-004	6	..........a	-327.68
	54	2.2	-2.16392E-001	-2.67218E-001	-2.41805E-001	7.03520E-008	-7.34521E-008	1.43804E-007	-2.67000E-001	3.37289E-004	6	..........a	-327.68
	55	2.24	-2.14381E-001	-2.65224E-001	-2.39802E-001	6.56973E-008	-6.99750E-008	1.35672E-007	-2.65000E-001	3.41873E-004	6	..........a	-327.68
	56	2.28	-2.12418E-001	-2.63266E-001	-2.37842E-001	6.24869E-008	-6.66596E-008	1.29146E-007	-2.63000E-001	3.38539E-004	6	..........a	-327.68
	57	2.32	-2.10436E-001	-2.61245E-001	-2.35841E-001	5.72229E-008	-6.31224E-008	1.20345E-007	-2.61000E-001	3.48956E-004	6	..........a	-327.68
	58	2.36	-2.08420E-001	-2.59223E-001	-2.33822E-001	5.44542E-008	-5.89711E-008	1.13425E-007	-2.59000E-001	3.55206E-004	6	..........a	-327.68
	59	2.4	-2.06401E-001	-2.57223E-001	-2.31812E-001	5.00419E-008	-5.65574E-008	1.06599E-007	-2.57000E-001	3.27706E-004	6	..........a	-327.68
	60	2.44	-2.04417E-001	-2.55268E-001	-2.29843E-001	4.60548E-008	-5.17310E-008	9.77858E-008	-2.55000E-001	3.33539E-004	6	..........a	-327.68
	61	2.48	-2.02460E-001	-2.53242E-001	-2.27851E-001	4.38395E-008	-4.83281E-008	9.21676E-008	-2.53000E-001	3.45623E-004	6	..........a	-327.68
	62	2.52	-2.00463E-001	-2.51210E-001	-2.25837E-001	3.93064E-008	-4.54677E-008	8.47741E-008	-2.51000E-001	3.44789E-004	6	..........a	-327.68
	63	2.56	-1.98456E-001	-2.49222E-001	-2.23839E-001	3.70670E-008	-4.02237E-008	7.72907E-008	-2.49000E-001	3.42289E-004	6	..........a	-327.68
	64	2.6	-1.96465E-001	-2.47224E-001	-2.21845E-001	3.40541E-008	-3.79459E-008	7.20000E-008	-2.47000E-001	3.41039E-004	6	..........a	-327.68
	65	2.64	-1.94470E-001	-2.45236E-001	-2.19853E-001	3.12479E-008	-3.40037E-008	6.52516E-008	-2.45000E-001	3.46039E-004	6	..........a	-327.68
	66	2.68	-1.92478E-001	-2.43194E-001	-2.17836E-001	2.97144E-008	-3.07192E-008	6.04335E-008	-2.43000E-001	3.45623E-004	6	..........a	-327.68
	67	2.72	-1.90440E-001	-2.41183E-001	-2.15811E-001	2.60781E-008	-2.79105E-008	5.39885E-008	-2.41000E-001	3.40623E-004	6	..........a	-327.68
	68	2.76	-1.88448E-001	-2.39246E-001	-2.13847E-001	2.45770E-008	-2.38950E-008	4.84720E-008	-2.39000E-001	3.36873E-004	6	..........a	-327.68
	69	2.8	-1.86486E-001	-2.37203E-001	-2.11845E-001	2.29552E-008	-2.18914E-008	4.48465E-008	-2.37000E-001	3.56873E-004	6	..........a	-327.68
	70	2.84	-1.84478E-001	-2.35178E-001	-2.09828E-001	2.07816E-008	-1.83067E-008	3.90883E-008	-2.35000E-001	3.52706E-004	6	..........a	-327.68
	71	2.88	-1.82464E-001	-2.33161E-001	-2.07813E-001	1.99623E-008	-1.62965E-008	3.62588E-008	-2.33000E-001	3.48123E-004	6	..........a	-327.68
	72	2.92	-1.80444E-001	-2.31218E-001	-2.05831E-001	1.76453E-008	-1.43337E-008	3.19791E-008	-2.31000E-001	3.31456E-004	6	..........a	-327.68
	73	2.96	-1.78497E-001	-2.29196E-001	-2.03847E-001	1.68661E-008	-1.11708E-008	2.80369E-008	-2.29000E-001	3.42706E-004	6	..........a	-327.68
	74	3	-1.76499E-001	-2.27184E-001	-2.01842E-001	1.57859E-008	-9.74899E-009	2.55349E-008	-2.27000E-001	3.32706E-004	6	..........a	-327.68
	75	3.04	-1.74479E-001	-2.25196E-001	-1.99838E-001	1.37857E-008	-7.71040E-009	2.14961E-008	-2.25000E-001	3.48123E-004	6	..........a	-327.68
	76	3.08	-1.72484E-001	-2.23217E-001	-1.97851E-001	1.44283E-008	-5.41344E-009	1.98417E-008	-2.23000E-001	3.53956E-004	6	..........a	-327.68
	77	3.12	-1.70512E-001	-2.21196E-001	-1.95854E-001	1.27489E-008	-4.73585E-009	1.74847E-008	-2.21000E-001	3.31456E-004	6	..........a	-327.68
	78	3.16	-1.68527E-001	-2.19180E-001	-1.93854E-001	1.24363E-008	-1.55545E-009	1.39918E-008	-2.19000E-001	3.35206E-004	6	..........a	-327.68
	79	3.2	-1.66495E-001	-2.17202E-001	-1.91848E-001	1.15946E-008	-1.33125E-009	1.29258E-008	-2.17000E-001	3.33539E-004	6	..........a	-327.68
	80	3.24	-1.64451E-001	-2.15204E-001	-1.89827E-001	1.03194E-008	9.78208E-010	9.34119E-009	-2.15000E-001	3.35206E-004	6	..........a	-327.68
	81	3.28	-1.62529E-001	-2.13201E-001	-1.87865E-001	1.10828E-008	1.67330E-009	9.40953E-009	-2.13000E-001	3.36456E-004	6	..........a	-327.68
	82	3.32	-1.60518E-001	-2.11191E-001	-1.85854E-001	9.79850E-009	2.44173E-009	7.35677E-009	-2.11000E-001	3.28539E-004	6	..........a	-327.68
	83	3.36	-1.58493E-001	-2.09165E-001	-1.83829E-001	1.01085E-008	4.94871E-009	5.15982E-009	-2.09000E-001	3.43123E-004	6	..........a	-327.68
	84	3.4	-1.56492E-001	-2.07193E-001	-1.81842E-001	9.57263E-009	4.88037E-009	4.69226E-009	-2.07000E-001	3.49373E-004	6	..........a	-327.68
	85	3.44	-1.54514E-001	-2.05182E-001	-1.79848E-001	8.80837E-009	6.11886E-009	2.68951E-009	-2.05000E-001	3.49789E-004	6	..........a	-327.68
	86	3.48	-1.52527E-001	-2.03170E-001	-1.77848E-001	9.62264E-009	6.91063E-009	2.71201E-009	-2.03000E-001	3.38123E-004	6	..........a	-327.68
	87	3.52	-1.50499E-001	-2.01172E-001	-1.75835E-001	8.01994E-009	6.84812E-009	1.17182E-009	-2.01000E-001	3.55206E-004	6	..........a	-327.68
	88	3.56	-1.48507E-001	-1.99196E-001	-1.73851E-001	9.00006E-009	9.16842E-009	-1.68355E-010	-1.99000E-001	3.56039E-004	6	..........a	-327.68
	89	3.6	-1.46523E-001	-1.97182E-001	-1.71852E-001	8.22330E-009	8.68752E-009	-4.64225E-010	-1.97000E-001	3.41039E-004	6	..........a	-327.68
	90	3.64	-1.44520E-001	-1.95189E-001	-1.69855E-001	7.95743E-009	9.76516E-009	-1.80773E-009	-1.95000E-001	3.51873E-004	6	..........a	-327.68
	91	3.68	-1.42512E-001	-1.93173E-001	-1.67843E-001	8.91088E-009	1.06653E-008	-1.75439E-009	-1.93000E-001	3.48539E-004	6	..........a	-327.68
	92	3.72	-1.40498E-001	-1.91196E-001	-1.65847E-001	8.16412E-009	9.97018E-009	-1.80606E-009	-1.91000E-001	3.38956E-004	6	..........a	-327.68
	93	3.76	-1.38533E-001	-1.89162E-001	-1.63847E-001	8.28247E-009	1.16229E-008	-3.34042E-009	-1.89000E-001	3.31039E-004	6	..........a	-327.68
	94	3.8	-1.36529E-001	-1.87166E-001	-1.61848E-001	8.41749E-009	1.14145E-008	-2.99705E-009	-1.87000E-001	3.47289E-004	6	..........a	-327.68
	95	3.84	-1.34498E-001	-1.85172E-001	-1.59835E-001	7.72240E-009	1.26014E-008	-4.87895E-009	-1.85000E-001	3.34789E-004	6	..........a	-327.68
	96	3.88	-1.32458E-001	-1.83167E-001	-1.57812E-001	9.10924E-009	1.26130E-008	-3.50378E-009	-1.83000E-001	3.52289E-004	6	..........a	-327.68
	97	3.92	-1.30513E-001	-1.81168E-001	-1.55841E-001	7.81824E-009	1.23121E-008	-4.49390E-009	-1.81000E-001	3.41456E-004	6	..........a	-327.68
	98	3.96	-1.28509E-001	-1.79148E-001	-1.53829E-001	8.47916E-009	1.37232E-008	-5.24400E-009	-1.79000E-001	3.49373E-004	6	..........a	-327.68
	99	4	-1.26501E-001	-1.77136E-001	-1.51818E-001	8.92255E-009	1.32789E-008	-4.35639E-009	-1.77000E-001	3.36456E-004	6	..........a	-327.68
	100	4.04	-1.24498E-001	-1.75178E-001	-1.49838E-001	8.24997E-009	1.37073E-008	-5.45736E-009	-1.75000E-001	3.34373E-004	6	..........a	-327.68
