EXPLAIN
TAG	SQUARE_WAVE
TITLE	LABEL	Square Wave Voltammetry	Test Identifier
DATE	LABEL	8/31/2020	Date
TIME	LABEL	12:39:13	Time
NOTES	NOTES	1	Notes...
	
PSTAT	PSTAT	REF600-24079	Potentiostat
VINIT	QUANT	-3.50000E-001	Initial E (V)
VFINAL	QUANT	-1.50000E-001	Final E (V)
STEPSIZE	QUANT	2.00000E+000	Step Size (mV)
TIMERRES	QUANT	3.33340E-005	&Timer Resolution
FREQUENCY	QUANT	5.00000E+002	Frequency (Hz)
PULSESIZE	QUANT	2.50000E+001	Pulse Size E (mV)
PULSEON	QUANT	2.00000E-003	Pulse &Time (s)
NOISEREJECT	TOGGLE	F	Noise Rejection
AREA	QUANT	2.00000E-002	Sample Area (cm^2)
IMODE	SELECTOR	1	I/E Range Mode
IRANGE	QUANT	1.00000E-002	Max Current (mA)
EQDELAY	IQUANT	10	Equil. Time (s)
IRCOMP	SELECTOR	0	IRComp
PFCOR	QUANT	5.00000E+001	PF Corr. (ohm)
CYCLES	IQUANT	101	C&ycles (#)
ELECTRODETYPE	SELECTOR	0	Electrode Type
STRIPPING	TOGGLE	F	Used for Stripping
POLARITY	TOGGLE	F	Signal Polarity
LINEFREQ	IQUANT	60	Line Frequency (Hz)
INTPERIOD	QUANT	3.3334E-005	Integration Period (s)
SEQUENCER	TOGGLE	TRUE	Run as Sequence
PSTATMODEL	IQUANT	4	Pstat Model
PSTATSECTION	LABEL	REF600-24079	Pstat Section
PSTATSERIALNO	LABEL	24079	Pstat Serial Number
CTRLMODE	IQUANT	1	Control Mode
ELECTROMETER	IQUANT	0	RE=0 or CS=1
IESTAB	IQUANT	2	I/E Stability
CASPEED	IQUANT	6	Control Amp Speed
CONVENTION	IQUANT	1	Current Convention
ICHRANGE	IQUANT	2	Ich Range
ICHRANGEMODE	TOGGLE	F	Ich Auto Range
ICHOFFSETENABLE	TOGGLE	F	Ich Offset Enable
ICHOFFSET	QUANT	0	Ich Offset (V)
ICHFILTER	IQUANT	1	Ich Filter
VCHRANGE	IQUANT	2	Vch Range
VCHRANGEMODE	TOGGLE	F	Vch Auto Range
VCHOFFSETENABLE	TOGGLE	F	Vch Offset Enable
VCHOFFSET	QUANT	0	Vch Offset (V)
VCHFILTER	IQUANT	1	Vch Filter
ACHRANGE	IQUANT	2	Ach Range
ACHOFFSETENABLE	TOGGLE	F	Ach Offset Enable
ACHOFFSET	QUANT	0	Ach Offset (V)
ACHFILTER	IQUANT	1	Ach Filter
IERANGELOWERLIMIT	IQUANT	1	I/E Range Lower Limit
IERANGEMODE	TOGGLE	F	I/E AutoRange
IERANGE	IQUANT	7	I/E Range
POSFEEDENABLE	TOGGLE	F	Positive Feedback IR Comp
POSFEEDRESISTANCE	QUANT	0	Positive Feedback Resistance (ohm)
ACHSELECT	IQUANT	0	Ach Select
SENSECABLEID	IQUANT	13	Sense Cable ID
PWRCABLEID	IQUANT	13	Power Cable ID
DCCALDATE	LABEL	6/30/2020	DC Calibration Date
ACCALDATE	LABEL	6/30/2020	AC Calibration Date
THERMOSELECT	IQUANT	1	Thermo Select
FRAMEWORKVERSION	LABEL	7.8.2	Framework Version
INSTRUMENTVERSION	LABEL	4.40	Instrument Version
CURVE	TABLE	101
	Pt	T	Vfwd	Vrev	Vstep	Ifwd	Irev	Idif	Sig	Ach	IERange	Over	Temp
	#	s	V	V	V	A	A	A	V	V	#	bits	deg C
	0	0.002	-3.25999E-001	-3.66691E-001	-3.46345E-001	9.01323E-008	-1.15618E-005	1.16519E-005	-3.75000E-001	4.41039E-004	7	..........a	-327.68
	1	0.004	-3.39874E-001	-3.59049E-001	-3.49462E-001	1.09598E-005	-9.45100E-006	2.04108E-005	-3.73000E-001	2.57706E-004	7	..........a	-327.68
	2	0.006	-3.35974E-001	-3.57666E-001	-3.46820E-001	9.72011E-006	-9.62453E-006	1.93446E-005	-3.71000E-001	3.07706E-004	7	..........a	-327.68
	3	0.008	-3.34149E-001	-3.55549E-001	-3.44849E-001	9.91580E-006	-9.57385E-006	1.94897E-005	-3.69000E-001	3.07706E-004	7	..........a	-327.68
	4	0.01	-3.32141E-001	-3.53624E-001	-3.42883E-001	9.91097E-006	-9.55752E-006	1.94685E-005	-3.67000E-001	2.74373E-004	7	..........a	-327.68
	5	0.012	-3.30066E-001	-3.51557E-001	-3.40812E-001	9.93014E-006	-9.54351E-006	1.94737E-005	-3.65000E-001	3.16039E-004	7	..........a	-327.68
	6	0.014	-3.28149E-001	-3.49607E-001	-3.38878E-001	9.93947E-006	-9.52985E-006	1.94693E-005	-3.63000E-001	2.82706E-004	7	..........a	-327.68
	7	0.016	-3.26124E-001	-3.47574E-001	-3.36849E-001	9.94281E-006	-9.52368E-006	1.94665E-005	-3.61000E-001	2.41039E-004	7	..........a	-327.68
	8	0.018	-3.24183E-001	-3.45607E-001	-3.34895E-001	9.95248E-006	-9.52268E-006	1.94752E-005	-3.59000E-001	3.16039E-004	7	..........a	-327.68
	9	0.02	-3.22066E-001	-3.43608E-001	-3.32837E-001	9.95348E-006	-9.51118E-006	1.94647E-005	-3.57000E-001	2.57706E-004	7	..........a	-327.68
	10	0.022	-3.20132E-001	-3.41608E-001	-3.30870E-001	9.95498E-006	-9.50517E-006	1.94602E-005	-3.55000E-001	2.74373E-004	7	..........a	-327.68
	11	0.024	-3.18066E-001	-3.39633E-001	-3.28849E-001	9.95881E-006	-9.50084E-006	1.94597E-005	-3.53000E-001	2.99373E-004	7	..........a	-327.68
	12	0.026	-3.16108E-001	-3.37591E-001	-3.26849E-001	9.96381E-006	-9.49084E-006	1.94547E-005	-3.51000E-001	2.66039E-004	7	..........a	-327.68
	13	0.028	-3.14108E-001	-3.35616E-001	-3.24862E-001	9.96831E-006	-9.48784E-006	1.94562E-005	-3.49000E-001	3.24373E-004	7	..........a	-327.68
	14	0.03	-3.12191E-001	-3.33407E-001	-3.22799E-001	9.96981E-006	-9.48117E-006	1.94510E-005	-3.47000E-001	2.91039E-004	7	..........a	-327.68
	15	0.032	-3.10091E-001	-3.31299E-001	-3.20695E-001	9.96931E-006	-9.48117E-006	1.94505E-005	-3.45000E-001	2.99373E-004	7	..........a	-327.68
	16	0.034	-3.08132E-001	-3.29591E-001	-3.18862E-001	9.97498E-006	-9.47451E-006	1.94495E-005	-3.43000E-001	3.41039E-004	7	..........a	-327.68
	17	0.036	-3.06124E-001	-3.27574E-001	-3.16849E-001	9.97281E-006	-9.47200E-006	1.94448E-005	-3.41000E-001	2.66039E-004	7	..........a	-327.68
	18	0.038	-3.04091E-001	-3.25574E-001	-3.14833E-001	9.97698E-006	-9.46817E-006	1.94451E-005	-3.39000E-001	2.99373E-004	7	..........a	-327.68
	19	0.04	-3.01974E-001	-3.23574E-001	-3.12774E-001	9.98065E-006	-9.46534E-006	1.94460E-005	-3.37000E-001	2.91039E-004	7	..........a	-327.68
	20	0.042	-3.00166E-001	-3.21549E-001	-3.10858E-001	9.98298E-006	-9.46367E-006	1.94466E-005	-3.35000E-001	2.49373E-004	7	..........a	-327.68
	21	0.044	-2.98174E-001	-3.19566E-001	-3.08870E-001	9.98531E-006	-9.45334E-006	1.94386E-005	-3.33000E-001	2.49373E-004	7	..........a	-327.68
	22	0.046	-2.96049E-001	-3.17499E-001	-3.06774E-001	9.98481E-006	-9.45417E-006	1.94390E-005	-3.31000E-001	2.99373E-004	7	..........a	-327.68
	23	0.048	-2.94133E-001	-3.15541E-001	-3.04837E-001	9.99148E-006	-9.44933E-006	1.94408E-005	-3.29000E-001	3.24373E-004	7	..........a	-327.68
	24	0.05	-2.92183E-001	-3.13583E-001	-3.02882E-001	9.99382E-006	-9.44350E-006	1.94373E-005	-3.27000E-001	3.32706E-004	7	..........a	-327.68
	25	0.052	-2.90149E-001	-3.11558E-001	-3.00853E-001	9.99182E-006	-9.43983E-006	1.94316E-005	-3.25000E-001	3.16039E-004	7	..........a	-327.68
	26	0.054	-2.88116E-001	-3.09524E-001	-2.98820E-001	9.99582E-006	-9.44433E-006	1.94401E-005	-3.23000E-001	2.66039E-004	7	..........a	-327.68
	27	0.056	-2.86199E-001	-3.07541E-001	-2.96870E-001	9.99965E-006	-9.43250E-006	1.94321E-005	-3.21000E-001	2.82706E-004	7	..........a	-327.68
	28	0.058	-2.84124E-001	-3.05524E-001	-2.94824E-001	1.00051E-005	-9.43517E-006	1.94403E-005	-3.19000E-001	3.49373E-004	7	..........a	-327.68
	29	0.06	-2.82149E-001	-3.03524E-001	-2.92837E-001	1.00076E-005	-9.42816E-006	1.94358E-005	-3.17000E-001	3.24373E-004	7	..........a	-327.68
	30	0.062	-2.80208E-001	-3.01549E-001	-2.90878E-001	1.00132E-005	-9.42466E-006	1.94378E-005	-3.15000E-001	2.99373E-004	7	..........a	-327.68
	31	0.064	-2.78166E-001	-2.99524E-001	-2.88845E-001	1.00203E-005	-9.42816E-006	1.94485E-005	-3.13000E-001	2.57706E-004	7	..........a	-327.68
	32	0.066	-2.76199E-001	-2.97566E-001	-2.86883E-001	1.00200E-005	-9.41216E-006	1.94321E-005	-3.11000E-001	2.99373E-004	7	..........a	-327.68
	33	0.068	-2.74199E-001	-2.95391E-001	-2.84795E-001	1.00237E-005	-9.41650E-006	1.94401E-005	-3.09000E-001	2.91039E-004	7	..........a	-327.68
	34	0.07	-2.72216E-001	-2.93524E-001	-2.82870E-001	1.00347E-005	-9.40600E-006	1.94406E-005	-3.07000E-001	2.82706E-004	7	..........a	-327.68
	35	0.072	-2.70199E-001	-2.91424E-001	-2.80812E-001	1.00333E-005	-9.40100E-006	1.94343E-005	-3.05000E-001	2.57706E-004	7	..........a	-327.68
	36	0.074	-2.68266E-001	-2.89516E-001	-2.78891E-001	1.00397E-005	-9.39599E-006	1.94356E-005	-3.03000E-001	2.41039E-004	7	..........a	-327.68
	37	0.076	-2.66232E-001	-2.87408E-001	-2.76820E-001	1.00528E-005	-9.39033E-006	1.94431E-005	-3.01000E-001	2.74373E-004	7	..........a	-327.68
	38	0.078	-2.64233E-001	-2.85391E-001	-2.74812E-001	1.00502E-005	-9.38683E-006	1.94370E-005	-2.99000E-001	2.74373E-004	7	..........a	-327.68
	39	0.08	-2.62174E-001	-2.83383E-001	-2.72778E-001	1.00610E-005	-9.37682E-006	1.94378E-005	-2.97000E-001	3.07706E-004	7	..........a	-327.68
	40	0.082	-2.60283E-001	-2.81424E-001	-2.70853E-001	1.00633E-005	-9.37449E-006	1.94378E-005	-2.95000E-001	3.32706E-004	7	..........a	-327.68
	41	0.084	-2.58249E-001	-2.79441E-001	-2.68845E-001	1.00673E-005	-9.36982E-006	1.94371E-005	-2.93000E-001	3.24373E-004	7	..........a	-327.68
	42	0.086	-2.56324E-001	-2.77399E-001	-2.66862E-001	1.00767E-005	-9.36299E-006	1.94396E-005	-2.91000E-001	2.91039E-004	7	..........a	-327.68
	43	0.088	-2.54333E-001	-2.75358E-001	-2.64845E-001	1.00798E-005	-9.35782E-006	1.94376E-005	-2.89000E-001	3.32706E-004	7	..........a	-327.68
	44	0.09	-2.52208E-001	-2.73408E-001	-2.62808E-001	1.00878E-005	-9.35532E-006	1.94431E-005	-2.87000E-001	2.82706E-004	7	..........a	-327.68
	45	0.092	-2.50282E-001	-2.71366E-001	-2.60824E-001	1.00935E-005	-9.34199E-006	1.94355E-005	-2.85000E-001	2.82706E-004	7	..........a	-327.68
	46	0.094	-2.48374E-001	-2.69433E-001	-2.58903E-001	1.00985E-005	-9.33415E-006	1.94326E-005	-2.83000E-001	3.74373E-004	7	..........a	-327.68
	47	0.096	-2.46274E-001	-2.67416E-001	-2.56845E-001	1.01045E-005	-9.33249E-006	1.94370E-005	-2.81000E-001	2.91039E-004	7	..........a	-327.68
	48	0.098	-2.44349E-001	-2.65374E-001	-2.54862E-001	1.01073E-005	-9.31582E-006	1.94231E-005	-2.79000E-001	2.99373E-004	7	..........a	-327.68
	49	0.1	-2.42291E-001	-2.63391E-001	-2.52841E-001	1.01098E-005	-9.31598E-006	1.94258E-005	-2.77000E-001	2.74373E-004	7	..........a	-327.68
	50	0.102	-2.40341E-001	-2.61374E-001	-2.50858E-001	1.01125E-005	-9.30648E-006	1.94190E-005	-2.75000E-001	3.07706E-004	7	..........a	-327.68
	51	0.104	-2.38316E-001	-2.59432E-001	-2.48874E-001	1.01108E-005	-9.30315E-006	1.94140E-005	-2.73000E-001	2.99373E-004	7	..........a	-327.68
	52	0.106	-2.36383E-001	-2.57366E-001	-2.46874E-001	1.01163E-005	-9.29931E-006	1.94156E-005	-2.71000E-001	2.82706E-004	7	..........a	-327.68
	53	0.108	-2.34274E-001	-2.55383E-001	-2.44828E-001	1.01180E-005	-9.29131E-006	1.94093E-005	-2.69000E-001	3.24373E-004	7	..........a	-327.68
	54	0.11	-2.32308E-001	-2.53391E-001	-2.42849E-001	1.01185E-005	-9.28615E-006	1.94046E-005	-2.67000E-001	2.99373E-004	7	..........a	-327.68
	55	0.112	-2.30291E-001	-2.51441E-001	-2.40866E-001	1.01210E-005	-9.27898E-006	1.94000E-005	-2.65000E-001	2.82706E-004	7	..........a	-327.68
	56	0.114	-2.28308E-001	-2.49433E-001	-2.38870E-001	1.01147E-005	-9.26981E-006	1.93845E-005	-2.63000E-001	3.32706E-004	7	..........a	-327.68
	57	0.116	-2.26274E-001	-2.47516E-001	-2.36895E-001	1.01125E-005	-9.27214E-006	1.93846E-005	-2.61000E-001	3.66039E-004	7	..........a	-327.68
	58	0.118	-2.24291E-001	-2.45449E-001	-2.34870E-001	1.01142E-005	-9.26881E-006	1.93830E-005	-2.59000E-001	3.41039E-004	7	..........a	-327.68
	59	0.12	-2.22291E-001	-2.43483E-001	-2.32887E-001	1.01042E-005	-9.26348E-006	1.93676E-005	-2.57000E-001	3.49373E-004	7	..........a	-327.68
	60	0.122	-2.20274E-001	-2.41491E-001	-2.30883E-001	1.01047E-005	-9.26331E-006	1.93680E-005	-2.55000E-001	2.82706E-004	7	..........a	-327.68
	61	0.124	-2.18158E-001	-2.39441E-001	-2.28799E-001	1.00945E-005	-9.25281E-006	1.93473E-005	-2.53000E-001	2.49373E-004	7	..........a	-327.68
	62	0.126	-2.16216E-001	-2.37499E-001	-2.26858E-001	1.00922E-005	-9.25548E-006	1.93476E-005	-2.51000E-001	3.32706E-004	7	..........a	-327.68
	63	0.128	-2.14208E-001	-2.35449E-001	-2.24828E-001	1.00845E-005	-9.25531E-006	1.93398E-005	-2.49000E-001	2.66039E-004	7	..........a	-327.68
	64	0.13	-2.12183E-001	-2.33524E-001	-2.22853E-001	1.00743E-005	-9.24881E-006	1.93231E-005	-2.47000E-001	3.24373E-004	7	..........a	-327.68
	65	0.132	-2.10141E-001	-2.31549E-001	-2.20845E-001	1.00698E-005	-9.25248E-006	1.93223E-005	-2.45000E-001	3.41039E-004	7	..........a	-327.68
	66	0.134	-2.08158E-001	-2.29583E-001	-2.18870E-001	1.00655E-005	-9.25164E-006	1.93171E-005	-2.43000E-001	2.74373E-004	7	..........a	-327.68
	67	0.136	-2.06108E-001	-2.27533E-001	-2.16820E-001	1.00593E-005	-9.24697E-006	1.93063E-005	-2.41000E-001	2.57706E-004	7	..........a	-327.68
	68	0.138	-2.04074E-001	-2.25608E-001	-2.14841E-001	1.00525E-005	-9.25064E-006	1.93031E-005	-2.39000E-001	3.16039E-004	7	..........a	-327.68
	69	0.14	-2.02066E-001	-2.23549E-001	-2.12808E-001	1.00412E-005	-9.25164E-006	1.92928E-005	-2.37000E-001	3.57706E-004	7	..........a	-327.68
	70	0.142	-2.00041E-001	-2.21633E-001	-2.10837E-001	1.00280E-005	-9.25281E-006	1.92808E-005	-2.35000E-001	2.66039E-004	7	..........a	-327.68
	71	0.144	-1.98158E-001	-2.19649E-001	-2.08903E-001	1.00295E-005	-9.24997E-006	1.92795E-005	-2.33000E-001	2.07706E-004	7	..........a	-327.68
	72	0.146	-1.96033E-001	-2.17633E-001	-2.06833E-001	1.00185E-005	-9.24731E-006	1.92658E-005	-2.31000E-001	3.57706E-004	7	..........a	-327.68
	73	0.148	-1.93916E-001	-2.15674E-001	-2.04795E-001	1.00180E-005	-9.25331E-006	1.92713E-005	-2.29000E-001	3.57706E-004	7	..........a	-327.68
	74	0.15	-1.91991E-001	-2.13733E-001	-2.02862E-001	1.00148E-005	-9.24731E-006	1.92621E-005	-2.27000E-001	2.49373E-004	7	..........a	-327.68
	75	0.152	-1.89966E-001	-2.11758E-001	-2.00862E-001	1.00025E-005	-9.24947E-006	1.92520E-005	-2.25000E-001	3.07706E-004	7	..........a	-327.68
	76	0.154	-1.87941E-001	-2.09716E-001	-1.98828E-001	9.99598E-006	-9.26064E-006	1.92566E-005	-2.23000E-001	2.74373E-004	7	..........a	-327.68
	77	0.156	-1.85949E-001	-2.07674E-001	-1.96812E-001	9.98948E-006	-9.25364E-006	1.92431E-005	-2.21000E-001	2.82706E-004	7	..........a	-327.68
	78	0.158	-1.83883E-001	-2.05741E-001	-1.94812E-001	9.98898E-006	-9.26114E-006	1.92501E-005	-2.19000E-001	2.91039E-004	7	..........a	-327.68
	79	0.16	-1.81941E-001	-2.03824E-001	-1.92883E-001	9.98165E-006	-9.25914E-006	1.92408E-005	-2.17000E-001	2.49373E-004	7	..........a	-327.68
	80	0.162	-1.79966E-001	-2.01766E-001	-1.90866E-001	9.98381E-006	-9.25931E-006	1.92431E-005	-2.15000E-001	3.07706E-004	7	..........a	-327.68
	81	0.164	-1.77874E-001	-1.99741E-001	-1.88808E-001	9.97748E-006	-9.26331E-006	1.92408E-005	-2.13000E-001	3.24373E-004	7	..........a	-327.68
	82	0.166	-1.75874E-001	-1.97824E-001	-1.86849E-001	9.97365E-006	-9.26098E-006	1.92346E-005	-2.11000E-001	2.24373E-004	7	..........a	-327.68
	83	0.168	-1.73891E-001	-1.95858E-001	-1.84874E-001	9.96881E-006	-9.26898E-006	1.92378E-005	-2.09000E-001	3.32706E-004	7	..........a	-327.68
	84	0.17	-1.71899E-001	-1.93808E-001	-1.82853E-001	9.96464E-006	-9.26431E-006	1.92290E-005	-2.07000E-001	2.91039E-004	7	..........a	-327.68
	85	0.172	-1.69933E-001	-1.91783E-001	-1.80858E-001	9.96081E-006	-9.26781E-006	1.92286E-005	-2.05000E-001	2.99373E-004	7	..........a	-327.68
	86	0.174	-1.67883E-001	-1.89849E-001	-1.78866E-001	9.95664E-006	-9.26848E-006	1.92251E-005	-2.03000E-001	2.99373E-004	7	..........a	-327.68
	87	0.176	-1.65849E-001	-1.87758E-001	-1.76803E-001	9.95731E-006	-9.26631E-006	1.92236E-005	-2.01000E-001	2.57706E-004	7	..........a	-327.68
	88	0.178	-1.63816E-001	-1.85816E-001	-1.74816E-001	9.95448E-006	-9.26664E-006	1.92211E-005	-1.99000E-001	3.24373E-004	7	..........a	-327.68
	89	0.18	-1.61841E-001	-1.83816E-001	-1.72828E-001	9.95514E-006	-9.26831E-006	1.92235E-005	-1.97000E-001	3.24373E-004	7	..........a	-327.68
	90	0.182	-1.59816E-001	-1.81791E-001	-1.70803E-001	9.94764E-006	-9.27314E-006	1.92208E-005	-1.95000E-001	3.32706E-004	7	..........a	-327.68
	91	0.184	-1.57824E-001	-1.79783E-001	-1.68803E-001	9.95231E-006	-9.27248E-006	1.92248E-005	-1.93000E-001	2.99373E-004	7	..........a	-327.68
	92	0.186	-1.55891E-001	-1.77841E-001	-1.66866E-001	9.95298E-006	-9.27364E-006	1.92266E-005	-1.91000E-001	2.91039E-004	7	..........a	-327.68
	93	0.188	-1.53874E-001	-1.75849E-001	-1.64862E-001	9.94698E-006	-9.27148E-006	1.92185E-005	-1.89000E-001	2.99373E-004	7	..........a	-327.68
	94	0.19	-1.51833E-001	-1.73849E-001	-1.62841E-001	9.94681E-006	-9.27698E-006	1.92238E-005	-1.87000E-001	3.24373E-004	7	..........a	-327.68
	95	0.192	-1.49899E-001	-1.71816E-001	-1.60858E-001	9.94431E-006	-9.27364E-006	1.92180E-005	-1.85000E-001	2.99373E-004	7	..........a	-327.68
	96	0.194	-1.47908E-001	-1.69849E-001	-1.58878E-001	9.94548E-006	-9.27664E-006	1.92221E-005	-1.83000E-001	2.82706E-004	7	..........a	-327.68
	97	0.196	-1.45808E-001	-1.67791E-001	-1.56799E-001	9.94798E-006	-9.27631E-006	1.92243E-005	-1.81000E-001	2.49373E-004	7	..........a	-327.68
	98	0.198	-1.43858E-001	-1.65824E-001	-1.54841E-001	9.94714E-006	-9.27431E-006	1.92215E-005	-1.79000E-001	2.74373E-004	7	..........a	-327.68
	99	0.2	-1.41816E-001	-1.63816E-001	-1.52816E-001	9.94781E-006	-9.27531E-006	1.92231E-005	-1.77000E-001	2.91039E-004	7	..........a	-327.68
	100	0.202	-1.39849E-001	-1.61808E-001	-1.50828E-001	9.94814E-006	-9.27081E-006	1.92190E-005	-1.75000E-001	3.24373E-004	7	..........a	-327.68
