EXPLAIN
TAG	SQUARE_WAVE
TITLE	LABEL	Square Wave Voltammetry	Test Identifier
DATE	LABEL	8/25/2020	Date
TIME	LABEL	14:54:52	Time
NOTES	NOTES	1	Notes...
	
PSTAT	PSTAT	REF600-24079	Potentiostat
VINIT	QUANT	-3.50000E-001	Initial E (V)
VFINAL	QUANT	-1.50000E-001	Final E (V)
STEPSIZE	QUANT	2.00000E+000	Step Size (mV)
TIMERRES	QUANT	3.33340E-005	&Timer Resolution
FREQUENCY	QUANT	2.00000E+002	Frequency (Hz)
PULSESIZE	QUANT	2.50000E+001	Pulse Size E (mV)
PULSEON	QUANT	5.00000E-003	Pulse &Time (s)
NOISEREJECT	TOGGLE	F	Noise Rejection
AREA	QUANT	2.00000E-002	Sample Area (cm^2)
IMODE	SELECTOR	1	I/E Range Mode
IRANGE	QUANT	1.00000E-002	Max Current (mA)
EQDELAY	IQUANT	10	Equil. Time (s)
IRCOMP	SELECTOR	0	IRComp
PFCOR	QUANT	5.00000E+001	PF Corr. (ohm)
CYCLES	IQUANT	101	C&ycles (#)
ELECTRODETYPE	SELECTOR	0	Electrode Type
STRIPPING	TOGGLE	F	Used for Stripping
POLARITY	TOGGLE	F	Signal Polarity
LINEFREQ	IQUANT	60	Line Frequency (Hz)
INTPERIOD	QUANT	3.3334E-005	Integration Period (s)
SEQUENCER	TOGGLE	TRUE	Run as Sequence
PSTATMODEL	IQUANT	4	Pstat Model
PSTATSECTION	LABEL	REF600-24079	Pstat Section
PSTATSERIALNO	LABEL	24079	Pstat Serial Number
CTRLMODE	IQUANT	1	Control Mode
ELECTROMETER	IQUANT	0	RE=0 or CS=1
IESTAB	IQUANT	2	I/E Stability
CASPEED	IQUANT	6	Control Amp Speed
CONVENTION	IQUANT	1	Current Convention
ICHRANGE	IQUANT	2	Ich Range
ICHRANGEMODE	TOGGLE	F	Ich Auto Range
ICHOFFSETENABLE	TOGGLE	F	Ich Offset Enable
ICHOFFSET	QUANT	0	Ich Offset (V)
ICHFILTER	IQUANT	2	Ich Filter
VCHRANGE	IQUANT	2	Vch Range
VCHRANGEMODE	TOGGLE	F	Vch Auto Range
VCHOFFSETENABLE	TOGGLE	F	Vch Offset Enable
VCHOFFSET	QUANT	0	Vch Offset (V)
VCHFILTER	IQUANT	1	Vch Filter
ACHRANGE	IQUANT	2	Ach Range
ACHOFFSETENABLE	TOGGLE	F	Ach Offset Enable
ACHOFFSET	QUANT	0	Ach Offset (V)
ACHFILTER	IQUANT	1	Ach Filter
IERANGELOWERLIMIT	IQUANT	1	I/E Range Lower Limit
IERANGEMODE	TOGGLE	F	I/E AutoRange
IERANGE	IQUANT	7	I/E Range
POSFEEDENABLE	TOGGLE	F	Positive Feedback IR Comp
POSFEEDRESISTANCE	QUANT	0	Positive Feedback Resistance (ohm)
ACHSELECT	IQUANT	0	Ach Select
SENSECABLEID	IQUANT	13	Sense Cable ID
PWRCABLEID	IQUANT	13	Power Cable ID
DCCALDATE	LABEL	6/30/2020	DC Calibration Date
ACCALDATE	LABEL	6/30/2020	AC Calibration Date
THERMOSELECT	IQUANT	1	Thermo Select
FRAMEWORKVERSION	LABEL	7.8.2	Framework Version
INSTRUMENTVERSION	LABEL	4.40	Instrument Version
CURVE	TABLE	101
	Pt	T	Vfwd	Vrev	Vstep	Ifwd	Irev	Idif	Sig	Ach	IERange	Over	Temp
	#	s	V	V	V	A	A	A	V	V	#	bits	deg C
	0	0.005	-3.26138E-001	-3.82004E-001	-3.54071E-001	6.02954E-009	-5.42979E-007	5.49008E-007	-3.75000E-001	3.72706E-004	7	..........a	-327.68
	1	0.01	-3.17838E-001	-3.80361E-001	-3.49099E-001	9.81754E-008	-2.04199E-007	3.02375E-007	-3.73000E-001	3.82706E-004	7	..........a	-327.68
	2	0.015	-3.15878E-001	-3.78321E-001	-3.47099E-001	1.02443E-007	-1.80329E-007	2.82772E-007	-3.71000E-001	3.89373E-004	7	..........a	-327.68
	3	0.02	-3.13861E-001	-3.76324E-001	-3.45093E-001	1.21379E-007	-1.68794E-007	2.90173E-007	-3.69000E-001	3.62706E-004	7	..........a	-327.68
	4	0.025	-3.11861E-001	-3.74314E-001	-3.43088E-001	1.33447E-007	-1.64060E-007	2.97507E-007	-3.67000E-001	3.56039E-004	7	..........a	-327.68
	5	0.03	-3.09878E-001	-3.72324E-001	-3.41101E-001	1.43982E-007	-1.61127E-007	3.05108E-007	-3.65000E-001	3.72706E-004	7	..........a	-327.68
	6	0.035	-3.07958E-001	-3.70341E-001	-3.39149E-001	1.50783E-007	-1.59793E-007	3.10576E-007	-3.63000E-001	3.79373E-004	7	..........a	-327.68
	7	0.04	-3.05941E-001	-3.68291E-001	-3.37116E-001	1.63984E-007	-1.52992E-007	3.16977E-007	-3.61000E-001	3.49373E-004	7	..........a	-327.68
	8	0.045	-3.03888E-001	-3.66361E-001	-3.35124E-001	1.80853E-007	-1.57926E-007	3.38780E-007	-3.59000E-001	3.86039E-004	7	..........a	-327.68
	9	0.05	-3.01928E-001	-3.64328E-001	-3.33128E-001	1.89788E-007	-1.57459E-007	3.47247E-007	-3.57000E-001	3.39373E-004	7	..........a	-327.68
	10	0.055	-2.99951E-001	-3.62304E-001	-3.31128E-001	1.97722E-007	-1.60793E-007	3.58516E-007	-3.55000E-001	3.56039E-004	7	..........a	-327.68
	11	0.06	-2.97961E-001	-3.60328E-001	-3.29144E-001	2.07124E-007	-1.61127E-007	3.68250E-007	-3.53000E-001	3.99373E-004	7	..........a	-327.68
	12	0.065	-2.95941E-001	-3.58281E-001	-3.27111E-001	2.21526E-007	-1.64460E-007	3.85986E-007	-3.51000E-001	3.66039E-004	7	..........a	-327.68
	13	0.07	-2.93924E-001	-3.56298E-001	-3.25111E-001	2.31994E-007	-1.68994E-007	4.00988E-007	-3.49000E-001	3.69373E-004	7	..........a	-327.68
	14	0.075	-2.91904E-001	-3.54294E-001	-3.23099E-001	2.50596E-007	-1.73462E-007	4.24058E-007	-3.47000E-001	4.02706E-004	7	..........a	-327.68
	15	0.08	-2.89937E-001	-3.52284E-001	-3.21111E-001	2.62198E-007	-1.83530E-007	4.45727E-007	-3.45000E-001	3.32706E-004	7	..........a	-327.68
	16	0.085	-2.87918E-001	-3.50301E-001	-3.19109E-001	2.78867E-007	-1.85730E-007	4.64597E-007	-3.43000E-001	3.52706E-004	7	..........a	-327.68
	17	0.09	-2.85921E-001	-3.48314E-001	-3.17118E-001	2.96536E-007	-1.96531E-007	4.93067E-007	-3.41000E-001	3.42706E-004	7	..........a	-327.68
	18	0.095	-2.83931E-001	-3.46314E-001	-3.15123E-001	3.16939E-007	-2.02332E-007	5.19271E-007	-3.39000E-001	3.66039E-004	7	..........a	-327.68
	19	0.1	-2.81907E-001	-3.44301E-001	-3.13104E-001	3.36075E-007	-2.13867E-007	5.49942E-007	-3.37000E-001	3.59373E-004	7	..........a	-327.68
	20	0.105	-2.79968E-001	-3.42301E-001	-3.11134E-001	3.55610E-007	-2.21735E-007	5.77345E-007	-3.35000E-001	3.26039E-004	7	..........a	-327.68
	21	0.11	-2.77968E-001	-3.40321E-001	-3.09144E-001	3.82281E-007	-2.33736E-007	6.16017E-007	-3.33000E-001	3.49373E-004	7	..........a	-327.68
	22	0.115	-2.75934E-001	-3.38244E-001	-3.07089E-001	4.01350E-007	-2.45205E-007	6.46555E-007	-3.31000E-001	3.56039E-004	7	..........a	-327.68
	23	0.12	-2.73998E-001	-3.36294E-001	-3.05146E-001	4.25087E-007	-2.60140E-007	6.85227E-007	-3.29000E-001	3.39373E-004	7	..........a	-327.68
	24	0.125	-2.71987E-001	-3.34294E-001	-3.03141E-001	4.53224E-007	-2.72675E-007	7.25899E-007	-3.27000E-001	3.49373E-004	7	..........a	-327.68
	25	0.13	-2.69971E-001	-3.32344E-001	-3.01158E-001	4.81161E-007	-2.86144E-007	7.67305E-007	-3.25000E-001	3.46039E-004	7	..........a	-327.68
	26	0.135	-2.67978E-001	-3.30357E-001	-2.99168E-001	5.06898E-007	-3.02746E-007	8.09644E-007	-3.23000E-001	3.62706E-004	7	..........a	-327.68
	27	0.14	-2.65938E-001	-3.28334E-001	-2.97136E-001	5.39169E-007	-3.20748E-007	8.59917E-007	-3.21000E-001	3.86039E-004	7	..........a	-327.68
	28	0.145	-2.63974E-001	-3.26321E-001	-2.95148E-001	5.68506E-007	-3.39618E-007	9.08124E-007	-3.19000E-001	3.86039E-004	7	..........a	-327.68
	29	0.15	-2.61957E-001	-3.24338E-001	-2.93148E-001	5.96977E-007	-3.57820E-007	9.54797E-007	-3.17000E-001	3.56039E-004	7	..........a	-327.68
	30	0.155	-2.59968E-001	-3.22341E-001	-2.91154E-001	6.30648E-007	-3.74889E-007	1.00554E-006	-3.15000E-001	3.52706E-004	7	..........a	-327.68
	31	0.16	-2.57948E-001	-3.20341E-001	-2.89144E-001	6.65253E-007	-3.93958E-007	1.05921E-006	-3.13000E-001	3.52706E-004	7	..........a	-327.68
	32	0.165	-2.55948E-001	-3.18331E-001	-2.87139E-001	6.99991E-007	-4.16961E-007	1.11695E-006	-3.11000E-001	3.29373E-004	7	..........a	-327.68
	33	0.17	-2.53974E-001	-3.16361E-001	-2.85168E-001	7.35996E-007	-4.34631E-007	1.17063E-006	-3.09000E-001	3.52706E-004	7	..........a	-327.68
	34	0.175	-2.51971E-001	-3.14357E-001	-2.83164E-001	7.65266E-007	-4.57300E-007	1.22257E-006	-3.07000E-001	3.49373E-004	7	..........a	-327.68
	35	0.18	-2.49958E-001	-3.12344E-001	-2.81151E-001	8.00138E-007	-4.77503E-007	1.27764E-006	-3.05000E-001	3.72706E-004	7	..........a	-327.68
	36	0.185	-2.47998E-001	-3.10354E-001	-2.79176E-001	8.26408E-007	-5.01373E-007	1.32778E-006	-3.03000E-001	3.96039E-004	7	..........a	-327.68
	37	0.19	-2.45974E-001	-3.08354E-001	-2.77164E-001	8.62880E-007	-5.21509E-007	1.38439E-006	-3.01000E-001	3.72706E-004	7	..........a	-327.68
	38	0.195	-2.43964E-001	-3.06364E-001	-2.75164E-001	8.93750E-007	-5.40578E-007	1.43433E-006	-2.99000E-001	3.86039E-004	7	..........a	-327.68
	39	0.2	-2.41958E-001	-3.04408E-001	-2.73183E-001	9.24288E-007	-5.58581E-007	1.48287E-006	-2.97000E-001	3.39373E-004	7	..........a	-327.68
	40	0.205	-2.39931E-001	-3.02394E-001	-2.71163E-001	9.52825E-007	-5.78850E-007	1.53168E-006	-2.95000E-001	3.72706E-004	7	..........a	-327.68
	41	0.21	-2.37951E-001	-3.00357E-001	-2.69154E-001	9.77629E-007	-5.94719E-007	1.57235E-006	-2.93000E-001	3.86039E-004	7	..........a	-327.68
	42	0.215	-2.35968E-001	-2.98331E-001	-2.67149E-001	1.00403E-006	-6.11188E-007	1.61522E-006	-2.91000E-001	3.29373E-004	7	..........a	-327.68
	43	0.22	-2.33958E-001	-2.96371E-001	-2.65164E-001	1.02023E-006	-6.29124E-007	1.64936E-006	-2.89000E-001	3.49373E-004	7	..........a	-327.68
	44	0.225	-2.31958E-001	-2.94318E-001	-2.63138E-001	1.03924E-006	-6.39325E-007	1.67856E-006	-2.87000E-001	3.39373E-004	7	..........a	-327.68
	45	0.23	-2.29938E-001	-2.92301E-001	-2.61119E-001	1.05264E-006	-6.55194E-007	1.70783E-006	-2.85000E-001	3.62706E-004	7	..........a	-327.68
	46	0.235	-2.27921E-001	-2.90354E-001	-2.59138E-001	1.06217E-006	-6.59461E-007	1.72163E-006	-2.83000E-001	3.62706E-004	7	..........a	-327.68
	47	0.24	-2.25941E-001	-2.88301E-001	-2.57121E-001	1.06891E-006	-6.73796E-007	1.74270E-006	-2.81000E-001	3.36039E-004	7	..........a	-327.68
	48	0.245	-2.23958E-001	-2.86274E-001	-2.55116E-001	1.07384E-006	-6.73997E-007	1.74784E-006	-2.79000E-001	3.39373E-004	7	..........a	-327.68
	49	0.25	-2.21951E-001	-2.84294E-001	-2.53123E-001	1.07211E-006	-6.82264E-007	1.75437E-006	-2.77000E-001	3.76039E-004	7	..........a	-327.68
	50	0.255	-2.19978E-001	-2.82304E-001	-2.51141E-001	1.07177E-006	-6.79464E-007	1.75124E-006	-2.75000E-001	3.52706E-004	7	..........a	-327.68
	51	0.26	-2.17948E-001	-2.80234E-001	-2.49091E-001	1.06117E-006	-6.78464E-007	1.73964E-006	-2.73000E-001	3.32706E-004	7	..........a	-327.68
	52	0.265	-2.15911E-001	-2.78264E-001	-2.47088E-001	1.04764E-006	-6.73396E-007	1.72103E-006	-2.71000E-001	3.62706E-004	7	..........a	-327.68
	53	0.27	-2.13954E-001	-2.76251E-001	-2.45103E-001	1.03584E-006	-6.68196E-007	1.70403E-006	-2.69000E-001	3.56039E-004	7	..........a	-327.68
	54	0.275	-2.11908E-001	-2.74211E-001	-2.43059E-001	1.01350E-006	-6.60328E-007	1.67383E-006	-2.67000E-001	3.09373E-004	7	..........a	-327.68
	55	0.28	-2.09964E-001	-2.72188E-001	-2.41076E-001	9.92297E-007	-6.48326E-007	1.64062E-006	-2.65000E-001	3.22706E-004	7	..........a	-327.68
	56	0.285	-2.07954E-001	-2.70194E-001	-2.39074E-001	9.64093E-007	-6.40058E-007	1.60415E-006	-2.63000E-001	3.22706E-004	7	..........a	-327.68
	57	0.29	-2.05924E-001	-2.68161E-001	-2.37043E-001	9.40757E-007	-6.21056E-007	1.56181E-006	-2.61000E-001	3.79373E-004	7	..........a	-327.68
	58	0.295	-2.03981E-001	-2.66138E-001	-2.35059E-001	9.12153E-007	-6.11655E-007	1.52381E-006	-2.59000E-001	3.36039E-004	7	..........a	-327.68
	59	0.3	-2.01968E-001	-2.64144E-001	-2.33056E-001	8.75081E-007	-5.87518E-007	1.46260E-006	-2.57000E-001	3.59373E-004	7	..........a	-327.68
	60	0.305	-1.99988E-001	-2.62107E-001	-2.31048E-001	8.46344E-007	-5.77650E-007	1.42399E-006	-2.55000E-001	3.66039E-004	7	..........a	-327.68
	61	0.31	-1.97998E-001	-2.60081E-001	-2.29039E-001	8.08339E-007	-5.45779E-007	1.35412E-006	-2.53000E-001	3.59373E-004	7	..........a	-327.68
	62	0.315	-1.95998E-001	-2.58081E-001	-2.27039E-001	7.78668E-007	-5.27910E-007	1.30658E-006	-2.51000E-001	3.62706E-004	7	..........a	-327.68
	63	0.32	-1.94021E-001	-2.56058E-001	-2.25039E-001	7.35062E-007	-5.07707E-007	1.24277E-006	-2.49000E-001	3.42706E-004	7	..........a	-327.68
	64	0.325	-1.92031E-001	-2.54081E-001	-2.23056E-001	7.00191E-007	-4.83637E-007	1.18383E-006	-2.47000E-001	3.52706E-004	7	..........a	-327.68
	65	0.33	-1.90018E-001	-2.52028E-001	-2.21023E-001	6.61786E-007	-4.61568E-007	1.12335E-006	-2.45000E-001	3.82706E-004	7	..........a	-327.68
	66	0.335	-1.88041E-001	-2.49968E-001	-2.19004E-001	6.20113E-007	-4.33830E-007	1.05394E-006	-2.43000E-001	3.82706E-004	7	..........a	-327.68
	67	0.34	-1.86051E-001	-2.47971E-001	-2.17011E-001	5.85242E-007	-4.11961E-007	9.97203E-007	-2.41000E-001	3.82706E-004	7	..........a	-327.68
	68	0.345	-1.84081E-001	-2.45934E-001	-2.15008E-001	5.51704E-007	-3.83757E-007	9.35461E-007	-2.39000E-001	3.62706E-004	7	..........a	-327.68
	69	0.35	-1.82081E-001	-2.43994E-001	-2.13038E-001	5.12899E-007	-3.61354E-007	8.74252E-007	-2.37000E-001	3.39373E-004	7	..........a	-327.68
	70	0.355	-1.80078E-001	-2.41938E-001	-2.11008E-001	4.79161E-007	-3.39751E-007	8.18912E-007	-2.35000E-001	3.66039E-004	7	..........a	-327.68
	71	0.36	-1.78111E-001	-2.39924E-001	-2.09018E-001	4.45356E-007	-3.14214E-007	7.59570E-007	-2.33000E-001	3.69373E-004	7	..........a	-327.68
	72	0.365	-1.76128E-001	-2.37918E-001	-2.07023E-001	4.07284E-007	-2.88077E-007	6.95361E-007	-2.31000E-001	3.42706E-004	7	..........a	-327.68
	73	0.37	-1.74168E-001	-2.35898E-001	-2.05033E-001	3.78347E-007	-2.67474E-007	6.45821E-007	-2.29000E-001	3.36039E-004	7	..........a	-327.68
	74	0.375	-1.72154E-001	-2.33881E-001	-2.03018E-001	3.46009E-007	-2.43138E-007	5.89147E-007	-2.27000E-001	3.66039E-004	7	..........a	-327.68
	75	0.38	-1.70174E-001	-2.31948E-001	-2.01061E-001	3.18605E-007	-2.21135E-007	5.39740E-007	-2.25000E-001	3.46039E-004	7	..........a	-327.68
	76	0.385	-1.68178E-001	-2.29918E-001	-1.99048E-001	2.87535E-007	-1.99598E-007	4.87133E-007	-2.23000E-001	3.89373E-004	7	..........a	-327.68
	77	0.39	-1.66188E-001	-2.27891E-001	-1.97039E-001	2.60264E-007	-1.77662E-007	4.37926E-007	-2.21000E-001	3.26039E-004	7	..........a	-327.68
	78	0.395	-1.64184E-001	-2.25838E-001	-1.95011E-001	2.37394E-007	-1.56726E-007	3.94120E-007	-2.19000E-001	3.62706E-004	7	..........a	-327.68
	79	0.4	-1.62241E-001	-2.23824E-001	-1.93033E-001	2.09924E-007	-1.38657E-007	3.48581E-007	-2.17000E-001	3.62706E-004	7	..........a	-327.68
	80	0.405	-1.60224E-001	-2.21834E-001	-1.91029E-001	1.92455E-007	-1.18587E-007	3.11042E-007	-2.15000E-001	3.26039E-004	7	..........a	-327.68
	81	0.41	-1.58234E-001	-2.19814E-001	-1.89024E-001	1.68318E-007	-1.00652E-007	2.68970E-007	-2.13000E-001	3.42706E-004	7	..........a	-327.68
	82	0.415	-1.56258E-001	-2.17818E-001	-1.87038E-001	1.44782E-007	-8.10490E-008	2.25831E-007	-2.11000E-001	3.69373E-004	7	..........a	-327.68
	83	0.42	-1.54274E-001	-2.15788E-001	-1.85031E-001	1.29380E-007	-6.76472E-008	1.97027E-007	-2.09000E-001	3.62706E-004	7	..........a	-327.68
	84	0.425	-1.52261E-001	-2.13751E-001	-1.83006E-001	1.08444E-007	-4.97781E-008	1.58222E-007	-2.07000E-001	3.26039E-004	7	..........a	-327.68
	85	0.43	-1.50314E-001	-2.11791E-001	-1.81053E-001	9.64419E-008	-3.37759E-008	1.30218E-007	-2.05000E-001	3.46039E-004	7	..........a	-327.68
	86	0.435	-1.48318E-001	-2.09821E-001	-1.79069E-001	7.56390E-008	-2.15742E-008	9.72132E-008	-2.03000E-001	3.62706E-004	7	..........a	-327.68
	87	0.44	-1.46301E-001	-2.07761E-001	-1.77031E-001	6.76379E-008	-7.57232E-009	7.52102E-008	-2.01000E-001	3.36039E-004	7	..........a	-327.68
	88	0.445	-1.44321E-001	-2.05781E-001	-1.75051E-001	5.35693E-008	2.76243E-009	5.08069E-008	-1.99000E-001	3.62706E-004	7	..........a	-327.68
	89	0.45	-1.42354E-001	-2.03818E-001	-1.73086E-001	3.99675E-008	2.04982E-008	1.94693E-008	-1.97000E-001	3.66039E-004	7	..........a	-327.68
	90	0.455	-1.40351E-001	-2.01774E-001	-1.71063E-001	2.86326E-008	2.93661E-008	-7.33435E-010	-1.95000E-001	3.92706E-004	7	..........a	-327.68
	91	0.46	-1.38408E-001	-1.99798E-001	-1.69103E-001	1.68977E-008	4.05676E-008	-2.36699E-008	-1.93000E-001	3.46039E-004	7	..........a	-327.68
	92	0.465	-1.36341E-001	-1.97718E-001	-1.67029E-001	1.04301E-008	5.17024E-008	-4.12723E-008	-1.91000E-001	3.89373E-004	7	..........a	-327.68
	93	0.47	-1.34364E-001	-1.95761E-001	-1.65063E-001	-2.37161E-009	6.41041E-008	-6.64757E-008	-1.89000E-001	3.22706E-004	7	..........a	-327.68
	94	0.475	-1.32381E-001	-1.93764E-001	-1.63073E-001	-4.97196E-009	7.17052E-008	-7.66771E-008	-1.87000E-001	3.69373E-004	7	..........a	-327.68
	95	0.48	-1.30374E-001	-1.91704E-001	-1.61039E-001	-1.45066E-008	7.97729E-008	-9.42795E-008	-1.85000E-001	3.46039E-004	7	..........a	-327.68
	96	0.485	-1.28381E-001	-1.89704E-001	-1.59043E-001	-2.13075E-008	8.56404E-008	-1.06948E-007	-1.83000E-001	3.46039E-004	7	..........a	-327.68
	97	0.49	-1.26468E-001	-1.87718E-001	-1.57093E-001	-2.92419E-008	9.27080E-008	-1.21950E-007	-1.81000E-001	3.29373E-004	7	..........a	-327.68
	98	0.495	-1.24401E-001	-1.85718E-001	-1.55059E-001	-3.47760E-008	1.04043E-007	-1.38819E-007	-1.79000E-001	3.59373E-004	7	..........a	-327.68
	99	0.5	-1.22448E-001	-1.83741E-001	-1.53094E-001	-3.99101E-008	1.05576E-007	-1.45486E-007	-1.77000E-001	3.86039E-004	7	..........a	-327.68
	100	0.505	-1.20441E-001	-1.81704E-001	-1.51073E-001	-4.43107E-008	1.17178E-007	-1.61489E-007	-1.75000E-001	3.49373E-004	7	..........a	-327.68
