EXPLAIN
TAG	SQUARE_WAVE
TITLE	LABEL	Square Wave Voltammetry	Test Identifier
DATE	LABEL	8/31/2020	Date
TIME	LABEL	14:41:04	Time
NOTES	NOTES	1	Notes...
	
PSTAT	PSTAT	REF600-24079	Potentiostat
VINIT	QUANT	-3.50000E-001	Initial E (V)
VFINAL	QUANT	-1.50000E-001	Final E (V)
STEPSIZE	QUANT	2.00000E+000	Step Size (mV)
TIMERRES	QUANT	3.33340E-005	&Timer Resolution
FREQUENCY	QUANT	1.00000E+001	Frequency (Hz)
PULSESIZE	QUANT	2.50000E+001	Pulse Size E (mV)
PULSEON	QUANT	1.00000E-001	Pulse &Time (s)
NOISEREJECT	TOGGLE	F	Noise Rejection
AREA	QUANT	2.00000E-002	Sample Area (cm^2)
IMODE	SELECTOR	1	I/E Range Mode
IRANGE	QUANT	1.00000E-003	Max Current (mA)
EQDELAY	IQUANT	10	Equil. Time (s)
IRCOMP	SELECTOR	0	IRComp
PFCOR	QUANT	5.00000E+001	PF Corr. (ohm)
CYCLES	IQUANT	101	C&ycles (#)
ELECTRODETYPE	SELECTOR	0	Electrode Type
STRIPPING	TOGGLE	F	Used for Stripping
POLARITY	TOGGLE	F	Signal Polarity
LINEFREQ	IQUANT	60	Line Frequency (Hz)
INTPERIOD	QUANT	3.3334E-005	Integration Period (s)
SEQUENCER	TOGGLE	TRUE	Run as Sequence
PSTATMODEL	IQUANT	4	Pstat Model
PSTATSECTION	LABEL	REF600-24079	Pstat Section
PSTATSERIALNO	LABEL	24079	Pstat Serial Number
CTRLMODE	IQUANT	1	Control Mode
ELECTROMETER	IQUANT	0	RE=0 or CS=1
IESTAB	IQUANT	2	I/E Stability
CASPEED	IQUANT	6	Control Amp Speed
CONVENTION	IQUANT	1	Current Convention
ICHRANGE	IQUANT	2	Ich Range
ICHRANGEMODE	TOGGLE	F	Ich Auto Range
ICHOFFSETENABLE	TOGGLE	F	Ich Offset Enable
ICHOFFSET	QUANT	0	Ich Offset (V)
ICHFILTER	IQUANT	2	Ich Filter
VCHRANGE	IQUANT	2	Vch Range
VCHRANGEMODE	TOGGLE	F	Vch Auto Range
VCHOFFSETENABLE	TOGGLE	F	Vch Offset Enable
VCHOFFSET	QUANT	0	Vch Offset (V)
VCHFILTER	IQUANT	2	Vch Filter
ACHRANGE	IQUANT	2	Ach Range
ACHOFFSETENABLE	TOGGLE	F	Ach Offset Enable
ACHOFFSET	QUANT	0	Ach Offset (V)
ACHFILTER	IQUANT	1	Ach Filter
IERANGELOWERLIMIT	IQUANT	1	I/E Range Lower Limit
IERANGEMODE	TOGGLE	F	I/E AutoRange
IERANGE	IQUANT	6	I/E Range
POSFEEDENABLE	TOGGLE	F	Positive Feedback IR Comp
POSFEEDRESISTANCE	QUANT	0	Positive Feedback Resistance (ohm)
ACHSELECT	IQUANT	0	Ach Select
SENSECABLEID	IQUANT	13	Sense Cable ID
PWRCABLEID	IQUANT	13	Power Cable ID
DCCALDATE	LABEL	6/30/2020	DC Calibration Date
ACCALDATE	LABEL	6/30/2020	AC Calibration Date
THERMOSELECT	IQUANT	1	Thermo Select
FRAMEWORKVERSION	LABEL	7.8.2	Framework Version
INSTRUMENTVERSION	LABEL	4.40	Instrument Version
CURVE	TABLE	101
	Pt	T	Vfwd	Vrev	Vstep	Ifwd	Irev	Idif	Sig	Ach	IERange	Over	Temp
	#	s	V	V	V	A	A	A	V	V	#	bits	deg C
	0	0.1	-3.24836E-001	-3.74880E-001	-3.49858E-001	-1.45186E-008	-5.13239E-008	3.68053E-008	-3.75000E-001	3.45039E-004	6	..........a	-327.68
	1	0.2	-3.22852E-001	-3.72882E-001	-3.47867E-001	7.70015E-010	-4.56442E-008	4.64142E-008	-3.73000E-001	3.43039E-004	6	..........a	-327.68
	2	0.3	-3.20883E-001	-3.70814E-001	-3.45848E-001	3.49603E-009	-4.34349E-008	4.69310E-008	-3.71000E-001	3.43039E-004	6	..........a	-327.68
	3	0.4	-3.18888E-001	-3.68897E-001	-3.43892E-001	4.92988E-009	-4.22208E-008	4.71507E-008	-3.69000E-001	3.39539E-004	6	..........a	-327.68
	4	0.5	-3.16764E-001	-3.66906E-001	-3.41835E-001	5.93367E-009	-4.12740E-008	4.72077E-008	-3.67000E-001	3.37373E-004	6	..........a	-327.68
	5	0.6	-3.14868E-001	-3.64802E-001	-3.39835E-001	6.91180E-009	-4.04026E-008	4.73144E-008	-3.65000E-001	3.52039E-004	6	..........a	-327.68
	6	0.7	-3.12874E-001	-3.62832E-001	-3.37853E-001	7.64122E-009	-3.98892E-008	4.75304E-008	-3.63000E-001	3.44539E-004	6	..........a	-327.68
	7	0.8	-3.10880E-001	-3.60865E-001	-3.35872E-001	8.46866E-009	-3.90824E-008	4.75511E-008	-3.61000E-001	3.37873E-004	6	..........a	-327.68
	8	0.9	-3.08790E-001	-3.58879E-001	-3.33835E-001	9.09807E-009	-3.85840E-008	4.76821E-008	-3.59000E-001	3.40206E-004	6	..........a	-327.68
	9	1	-3.06811E-001	-3.56773E-001	-3.31792E-001	9.69048E-009	-3.80969E-008	4.77874E-008	-3.57000E-001	3.30539E-004	6	..........a	-327.68
	10	1.1	-3.04841E-001	-3.54837E-001	-3.29839E-001	1.02829E-008	-3.77205E-008	4.80034E-008	-3.55000E-001	3.31206E-004	6	..........a	-327.68
	11	1.2	-3.02893E-001	-3.52877E-001	-3.27885E-001	1.11540E-008	-3.72788E-008	4.84328E-008	-3.53000E-001	3.36873E-004	6	..........a	-327.68
	12	1.3	-3.00855E-001	-3.50879E-001	-3.25867E-001	1.16127E-008	-3.71571E-008	4.87699E-008	-3.51000E-001	3.41873E-004	6	..........a	-327.68
	13	1.4	-2.98845E-001	-3.48858E-001	-3.23851E-001	1.25212E-008	-3.68911E-008	4.94123E-008	-3.49000E-001	3.36039E-004	6	..........a	-327.68
	14	1.5	-2.96870E-001	-3.46849E-001	-3.21860E-001	1.33229E-008	-3.66761E-008	4.99990E-008	-3.47000E-001	3.29539E-004	6	..........a	-327.68
	15	1.6	-2.94890E-001	-3.44843E-001	-3.19867E-001	1.40547E-008	-3.63754E-008	5.04301E-008	-3.45000E-001	3.29373E-004	6	..........a	-327.68
	16	1.7	-2.92685E-001	-3.42918E-001	-3.17801E-001	1.49275E-008	-3.62127E-008	5.11402E-008	-3.43000E-001	3.33373E-004	6	..........a	-327.68
	17	1.8	-2.90797E-001	-3.40825E-001	-3.15811E-001	1.58893E-008	-3.62490E-008	5.21383E-008	-3.41000E-001	3.32706E-004	6	..........a	-327.68
	18	1.9	-2.88880E-001	-3.38836E-001	-3.13858E-001	1.69417E-008	-3.64194E-008	5.33611E-008	-3.39000E-001	3.26373E-004	6	..........a	-327.68
	19	2	-2.86875E-001	-3.36851E-001	-3.11863E-001	1.80889E-008	-3.64027E-008	5.44916E-008	-3.37000E-001	3.27373E-004	6	..........a	-327.68
	20	2.1	-2.84820E-001	-3.34876E-001	-3.09848E-001	1.91674E-008	-3.66084E-008	5.57758E-008	-3.35000E-001	3.31373E-004	6	..........a	-327.68
	21	2.2	-2.82816E-001	-3.32818E-001	-3.07817E-001	2.04825E-008	-3.67048E-008	5.71873E-008	-3.33000E-001	3.38373E-004	6	..........a	-327.68
	22	2.3	-2.80890E-001	-3.30820E-001	-3.05855E-001	2.18580E-008	-3.69741E-008	5.88321E-008	-3.31000E-001	3.47873E-004	6	..........a	-327.68
	23	2.4	-2.78872E-001	-3.28865E-001	-3.03868E-001	2.31819E-008	-3.73482E-008	6.05300E-008	-3.29000E-001	3.50373E-004	6	..........a	-327.68
	24	2.5	-2.76859E-001	-3.26877E-001	-3.01868E-001	2.47114E-008	-3.78322E-008	6.25436E-008	-3.27000E-001	3.39539E-004	6	..........a	-327.68
	25	2.6	-2.74844E-001	-3.24834E-001	-2.99839E-001	2.61229E-008	-3.82036E-008	6.43265E-008	-3.25000E-001	3.45039E-004	6	..........a	-327.68
	26	2.7	-2.72874E-001	-3.22863E-001	-2.97868E-001	2.75444E-008	-3.90174E-008	6.65618E-008	-3.23000E-001	3.37873E-004	6	..........a	-327.68
	27	2.8	-2.70880E-001	-3.20873E-001	-2.95876E-001	2.94210E-008	-3.97188E-008	6.91398E-008	-3.21000E-001	3.42539E-004	6	..........a	-327.68
	28	2.9	-2.68878E-001	-3.18893E-001	-2.93885E-001	3.08572E-008	-4.05039E-008	7.13611E-008	-3.19000E-001	3.48539E-004	6	..........a	-327.68
	29	3	-2.66812E-001	-3.16770E-001	-2.91791E-001	3.24057E-008	-4.14137E-008	7.38194E-008	-3.17000E-001	3.60539E-004	6	..........a	-327.68
	30	3.1	-2.64880E-001	-3.14890E-001	-2.89885E-001	3.38842E-008	-4.23331E-008	7.62174E-008	-3.15000E-001	3.52373E-004	6	..........a	-327.68
	31	3.2	-2.62875E-001	-3.12885E-001	-2.87880E-001	3.54911E-008	-4.35636E-008	7.90547E-008	-3.13000E-001	3.49206E-004	6	..........a	-327.68
	32	3.3	-2.60788E-001	-3.10883E-001	-2.85835E-001	3.70870E-008	-4.46994E-008	8.17864E-008	-3.11000E-001	3.42206E-004	6	..........a	-327.68
	33	3.4	-2.58833E-001	-3.08864E-001	-2.83848E-001	3.83411E-008	-4.56886E-008	8.40297E-008	-3.09000E-001	3.54039E-004	6	..........a	-327.68
	34	3.5	-2.56854E-001	-3.06856E-001	-2.81855E-001	3.96666E-008	-4.71628E-008	8.68294E-008	-3.07000E-001	3.55206E-004	6	..........a	-327.68
	35	3.6	-2.54889E-001	-3.04890E-001	-2.79890E-001	4.07994E-008	-4.85039E-008	8.93034E-008	-3.05000E-001	3.48873E-004	6	..........a	-327.68
	36	3.7	-2.52800E-001	-3.02897E-001	-2.77849E-001	4.17856E-008	-4.97578E-008	9.15433E-008	-3.03000E-001	3.48873E-004	6	..........a	-327.68
	37	3.8	-2.50844E-001	-3.00893E-001	-2.75868E-001	4.24900E-008	-5.12246E-008	9.37146E-008	-3.01000E-001	3.36873E-004	6	..........a	-327.68
	38	3.9	-2.48870E-001	-2.98861E-001	-2.73865E-001	4.29424E-008	-5.24428E-008	9.53851E-008	-2.99000E-001	3.52706E-004	6	..........a	-327.68
	39	4	-2.46874E-001	-2.96880E-001	-2.71877E-001	4.36135E-008	-5.35552E-008	9.71687E-008	-2.97000E-001	3.62539E-004	6	..........a	-327.68
	40	4.1	-2.44851E-001	-2.94856E-001	-2.69853E-001	4.39852E-008	-5.49687E-008	9.89539E-008	-2.95000E-001	3.72373E-004	6	..........a	-327.68
	41	4.2	-2.42799E-001	-2.92760E-001	-2.67780E-001	4.40589E-008	-5.61042E-008	1.00163E-007	-2.93000E-001	3.54373E-004	6	..........a	-327.68
	42	4.3	-2.40862E-001	-2.90847E-001	-2.65855E-001	4.40329E-008	-5.72060E-008	1.01239E-007	-2.91000E-001	3.59539E-004	6	..........a	-327.68
	43	4.4	-2.38898E-001	-2.88893E-001	-2.63895E-001	4.37702E-008	-5.80228E-008	1.01793E-007	-2.89000E-001	3.66873E-004	6	..........a	-327.68
	44	4.5	-2.36781E-001	-2.86880E-001	-2.61831E-001	4.34344E-008	-5.87176E-008	1.02152E-007	-2.87000E-001	3.57039E-004	6	..........a	-327.68
	45	4.6	-2.34819E-001	-2.84839E-001	-2.59829E-001	4.28257E-008	-5.92220E-008	1.02048E-007	-2.85000E-001	3.64539E-004	6	..........a	-327.68
	46	4.7	-2.32840E-001	-2.82850E-001	-2.57845E-001	4.24280E-008	-5.95607E-008	1.01989E-007	-2.83000E-001	3.65206E-004	6	..........a	-327.68
	47	4.8	-2.30860E-001	-2.80899E-001	-2.55879E-001	4.15699E-008	-5.97664E-008	1.01336E-007	-2.81000E-001	3.66039E-004	6	..........a	-327.68
	48	4.9	-2.28781E-001	-2.78883E-001	-2.53832E-001	4.06161E-008	-5.94630E-008	1.00079E-007	-2.79000E-001	3.46373E-004	6	..........a	-327.68
	49	5	-2.26828E-001	-2.76877E-001	-2.51852E-001	3.97963E-008	-5.93153E-008	9.91116E-008	-2.77000E-001	3.65873E-004	6	..........a	-327.68
	50	5.1	-2.24866E-001	-2.74856E-001	-2.49861E-001	3.87198E-008	-5.85982E-008	9.73181E-008	-2.75000E-001	3.57873E-004	6	..........a	-327.68
	51	5.2	-2.22862E-001	-2.72882E-001	-2.47872E-001	3.78531E-008	-5.80685E-008	9.59215E-008	-2.73000E-001	3.62373E-004	6	..........a	-327.68
	52	5.3	-2.20856E-001	-2.70867E-001	-2.45862E-001	3.68333E-008	-5.71244E-008	9.39576E-008	-2.71000E-001	3.48706E-004	6	..........a	-327.68
	53	5.4	-2.18847E-001	-2.68859E-001	-2.43853E-001	3.58895E-008	-5.56798E-008	9.15693E-008	-2.69000E-001	3.62873E-004	6	..........a	-327.68
	54	5.5	-2.16855E-001	-2.66825E-001	-2.41840E-001	3.48453E-008	-5.45684E-008	8.94137E-008	-2.67000E-001	3.51539E-004	6	..........a	-327.68
	55	5.6	-2.14881E-001	-2.64877E-001	-2.39879E-001	3.37459E-008	-5.30382E-008	8.67840E-008	-2.65000E-001	3.46873E-004	6	..........a	-327.68
	56	5.7	-2.12782E-001	-2.62868E-001	-2.37825E-001	3.28711E-008	-5.15060E-008	8.43771E-008	-2.63000E-001	3.46373E-004	6	..........a	-327.68
	57	5.8	-2.10844E-001	-2.60848E-001	-2.35846E-001	3.20020E-008	-4.98511E-008	8.18531E-008	-2.61000E-001	3.58873E-004	6	..........a	-327.68
	58	5.9	-2.08851E-001	-2.58837E-001	-2.33844E-001	3.11795E-008	-4.82332E-008	7.94128E-008	-2.59000E-001	3.49539E-004	6	..........a	-327.68
	59	6	-2.06864E-001	-2.56859E-001	-2.31862E-001	3.02451E-008	-4.63063E-008	7.65514E-008	-2.57000E-001	3.35039E-004	6	..........a	-327.68
	60	6.1	-2.04809E-001	-2.54895E-001	-2.29852E-001	2.95377E-008	-4.45731E-008	7.41108E-008	-2.55000E-001	3.47873E-004	6	..........a	-327.68
	61	6.2	-2.02824E-001	-2.52831E-001	-2.27827E-001	2.88483E-008	-4.27809E-008	7.16291E-008	-2.53000E-001	3.39373E-004	6	..........a	-327.68
	62	6.3	-2.00859E-001	-2.50853E-001	-2.25856E-001	2.82388E-008	-4.11176E-008	6.93565E-008	-2.51000E-001	3.43539E-004	6	..........a	-327.68
	63	6.4	-1.98874E-001	-2.48866E-001	-2.23870E-001	2.75078E-008	-3.92807E-008	6.67885E-008	-2.49000E-001	3.46039E-004	6	..........a	-327.68
	64	6.5	-1.96837E-001	-2.46872E-001	-2.21855E-001	2.70090E-008	-3.76582E-008	6.46672E-008	-2.47000E-001	3.34373E-004	6	..........a	-327.68
	65	6.6	-1.94847E-001	-2.44873E-001	-2.19860E-001	2.64073E-008	-3.57633E-008	6.21706E-008	-2.45000E-001	3.39373E-004	6	..........a	-327.68
	66	6.7	-1.92862E-001	-2.42784E-001	-2.17823E-001	2.59005E-008	-3.44105E-008	6.03110E-008	-2.43000E-001	3.37206E-004	6	..........a	-327.68
	67	6.8	-1.90897E-001	-2.40855E-001	-2.15876E-001	2.53965E-008	-3.29066E-008	5.83031E-008	-2.41000E-001	3.35373E-004	6	..........a	-327.68
	68	6.9	-1.88745E-001	-2.38891E-001	-2.13818E-001	2.50374E-008	-3.14484E-008	5.64859E-008	-2.39000E-001	3.33706E-004	6	..........a	-327.68
	69	7	-1.86840E-001	-2.36850E-001	-2.11845E-001	2.45520E-008	-3.01493E-008	5.47013E-008	-2.37000E-001	3.38206E-004	6	..........a	-327.68
	70	7.1	-1.84860E-001	-2.34827E-001	-2.09844E-001	2.43680E-008	-2.88954E-008	5.32634E-008	-2.35000E-001	3.45039E-004	6	..........a	-327.68
	71	7.2	-1.82845E-001	-2.32843E-001	-2.07844E-001	2.41807E-008	-2.79410E-008	5.21216E-008	-2.33000E-001	3.39706E-004	6	..........a	-327.68
	72	7.3	-1.80804E-001	-2.30854E-001	-2.05829E-001	2.37536E-008	-2.71149E-008	5.08685E-008	-2.31000E-001	3.46039E-004	6	..........a	-327.68
	73	7.4	-1.78813E-001	-2.28793E-001	-2.03803E-001	2.36089E-008	-2.60824E-008	4.96913E-008	-2.29000E-001	3.58206E-004	6	..........a	-327.68
	74	7.5	-1.76846E-001	-2.26830E-001	-2.01838E-001	2.35206E-008	-2.52523E-008	4.87729E-008	-2.27000E-001	3.49373E-004	6	..........a	-327.68
	75	7.6	-1.74861E-001	-2.24861E-001	-1.99861E-001	2.32632E-008	-2.45385E-008	4.78018E-008	-2.25000E-001	3.55539E-004	6	..........a	-327.68
	76	7.7	-1.72830E-001	-2.22861E-001	-1.97845E-001	2.32242E-008	-2.36071E-008	4.68313E-008	-2.23000E-001	3.47039E-004	6	..........a	-327.68
	77	7.8	-1.70830E-001	-2.20861E-001	-1.95845E-001	2.29258E-008	-2.30930E-008	4.60189E-008	-2.21000E-001	3.55873E-004	6	..........a	-327.68
	78	7.9	-1.68853E-001	-2.18849E-001	-1.93851E-001	2.31282E-008	-2.26263E-008	4.57545E-008	-2.19000E-001	3.50706E-004	6	..........a	-327.68
	79	8	-1.66858E-001	-2.16867E-001	-1.91862E-001	2.28858E-008	-2.21992E-008	4.50851E-008	-2.17000E-001	3.50039E-004	6	..........a	-327.68
	80	8.1	-1.64716E-001	-2.14883E-001	-1.89800E-001	2.30428E-008	-2.15942E-008	4.46370E-008	-2.15000E-001	3.47206E-004	6	..........a	-327.68
	81	8.2	-1.62805E-001	-2.12845E-001	-1.87825E-001	2.27488E-008	-2.11868E-008	4.39356E-008	-2.13000E-001	3.37206E-004	6	..........a	-327.68
	82	8.3	-1.60868E-001	-2.10850E-001	-1.85859E-001	2.29148E-008	-2.07217E-008	4.36366E-008	-2.11000E-001	3.32373E-004	6	..........a	-327.68
	83	8.4	-1.58857E-001	-2.08845E-001	-1.83851E-001	2.27508E-008	-2.03003E-008	4.30511E-008	-2.09000E-001	3.53706E-004	6	..........a	-327.68
	84	8.5	-1.56783E-001	-2.06852E-001	-1.81818E-001	2.28598E-008	-1.99256E-008	4.27854E-008	-2.07000E-001	3.39206E-004	6	..........a	-327.68
	85	8.6	-1.54813E-001	-2.04812E-001	-1.79812E-001	2.28732E-008	-1.97296E-008	4.26028E-008	-2.05000E-001	3.44873E-004	6	..........a	-327.68
	86	8.7	-1.52849E-001	-2.02831E-001	-1.77840E-001	2.27548E-008	-1.91819E-008	4.19367E-008	-2.03000E-001	3.47539E-004	6	..........a	-327.68
	87	8.8	-1.50853E-001	-2.00869E-001	-1.75861E-001	2.29492E-008	-1.91282E-008	4.20774E-008	-2.01000E-001	3.38706E-004	6	..........a	-327.68
	88	8.9	-1.48812E-001	-1.98865E-001	-1.73839E-001	2.27885E-008	-1.88725E-008	4.16610E-008	-1.99000E-001	3.45873E-004	6	..........a	-327.68
	89	9	-1.46823E-001	-1.96840E-001	-1.71831E-001	2.29112E-008	-1.87791E-008	4.16903E-008	-1.97000E-001	3.44039E-004	6	..........a	-327.68
	90	9.1	-1.44848E-001	-1.94837E-001	-1.69842E-001	2.31079E-008	-1.85361E-008	4.16440E-008	-1.95000E-001	3.41873E-004	6	..........a	-327.68
	91	9.2	-1.42860E-001	-1.92870E-001	-1.67865E-001	2.33536E-008	-1.83354E-008	4.16890E-008	-1.93000E-001	3.47539E-004	6	..........a	-327.68
	92	9.3	-1.40840E-001	-1.90901E-001	-1.65870E-001	2.31249E-008	-1.81211E-008	4.12459E-008	-1.91000E-001	3.49206E-004	6	..........a	-327.68
	93	9.4	-1.38783E-001	-1.88762E-001	-1.63772E-001	2.33369E-008	-1.78374E-008	4.11742E-008	-1.89000E-001	3.50373E-004	6	..........a	-327.68
	94	9.5	-1.36848E-001	-1.86839E-001	-1.61843E-001	2.34602E-008	-1.77667E-008	4.12269E-008	-1.87000E-001	3.44206E-004	6	..........a	-327.68
	95	9.6	-1.34838E-001	-1.84868E-001	-1.59853E-001	2.34759E-008	-1.75670E-008	4.10429E-008	-1.85000E-001	3.46206E-004	6	..........a	-327.68
	96	9.7	-1.32765E-001	-1.82847E-001	-1.57806E-001	2.34019E-008	-1.75890E-008	4.09909E-008	-1.83000E-001	3.23373E-004	6	..........a	-327.68
	97	9.8	-1.30805E-001	-1.80802E-001	-1.55804E-001	2.35999E-008	-1.72269E-008	4.08269E-008	-1.81000E-001	3.39539E-004	6	..........a	-327.68
	98	9.9	-1.28829E-001	-1.78830E-001	-1.53830E-001	2.36536E-008	-1.71146E-008	4.07682E-008	-1.79000E-001	3.43873E-004	6	..........a	-327.68
	99	10	-1.26870E-001	-1.76846E-001	-1.51858E-001	2.36466E-008	-1.70713E-008	4.07178E-008	-1.77000E-001	3.42206E-004	6	..........a	-327.68
	100	10.1	-1.24794E-001	-1.74863E-001	-1.49828E-001	2.38980E-008	-1.68369E-008	4.07348E-008	-1.75000E-001	3.36873E-004	6	..........a	-327.68
