EXPLAIN
TAG	SQUARE_WAVE
TITLE	LABEL	Square Wave Voltammetry	Test Identifier
DATE	LABEL	8/31/2020	Date
TIME	LABEL	14:44:24	Time
NOTES	NOTES	1	Notes...
	
PSTAT	PSTAT	REF600-24079	Potentiostat
VINIT	QUANT	-3.50000E-001	Initial E (V)
VFINAL	QUANT	-1.50000E-001	Final E (V)
STEPSIZE	QUANT	2.00000E+000	Step Size (mV)
TIMERRES	QUANT	3.33340E-005	&Timer Resolution
FREQUENCY	QUANT	2.00000E+002	Frequency (Hz)
PULSESIZE	QUANT	2.50000E+001	Pulse Size E (mV)
PULSEON	QUANT	5.00000E-003	Pulse &Time (s)
NOISEREJECT	TOGGLE	F	Noise Rejection
AREA	QUANT	2.00000E-002	Sample Area (cm^2)
IMODE	SELECTOR	1	I/E Range Mode
IRANGE	QUANT	1.00000E-002	Max Current (mA)
EQDELAY	IQUANT	10	Equil. Time (s)
IRCOMP	SELECTOR	0	IRComp
PFCOR	QUANT	5.00000E+001	PF Corr. (ohm)
CYCLES	IQUANT	101	C&ycles (#)
ELECTRODETYPE	SELECTOR	0	Electrode Type
STRIPPING	TOGGLE	F	Used for Stripping
POLARITY	TOGGLE	F	Signal Polarity
LINEFREQ	IQUANT	60	Line Frequency (Hz)
INTPERIOD	QUANT	3.3334E-005	Integration Period (s)
SEQUENCER	TOGGLE	TRUE	Run as Sequence
PSTATMODEL	IQUANT	4	Pstat Model
PSTATSECTION	LABEL	REF600-24079	Pstat Section
PSTATSERIALNO	LABEL	24079	Pstat Serial Number
CTRLMODE	IQUANT	1	Control Mode
ELECTROMETER	IQUANT	0	RE=0 or CS=1
IESTAB	IQUANT	2	I/E Stability
CASPEED	IQUANT	6	Control Amp Speed
CONVENTION	IQUANT	1	Current Convention
ICHRANGE	IQUANT	2	Ich Range
ICHRANGEMODE	TOGGLE	F	Ich Auto Range
ICHOFFSETENABLE	TOGGLE	F	Ich Offset Enable
ICHOFFSET	QUANT	0	Ich Offset (V)
ICHFILTER	IQUANT	2	Ich Filter
VCHRANGE	IQUANT	2	Vch Range
VCHRANGEMODE	TOGGLE	F	Vch Auto Range
VCHOFFSETENABLE	TOGGLE	F	Vch Offset Enable
VCHOFFSET	QUANT	0	Vch Offset (V)
VCHFILTER	IQUANT	1	Vch Filter
ACHRANGE	IQUANT	2	Ach Range
ACHOFFSETENABLE	TOGGLE	F	Ach Offset Enable
ACHOFFSET	QUANT	0	Ach Offset (V)
ACHFILTER	IQUANT	1	Ach Filter
IERANGELOWERLIMIT	IQUANT	1	I/E Range Lower Limit
IERANGEMODE	TOGGLE	F	I/E AutoRange
IERANGE	IQUANT	7	I/E Range
POSFEEDENABLE	TOGGLE	F	Positive Feedback IR Comp
POSFEEDRESISTANCE	QUANT	0	Positive Feedback Resistance (ohm)
ACHSELECT	IQUANT	0	Ach Select
SENSECABLEID	IQUANT	13	Sense Cable ID
PWRCABLEID	IQUANT	13	Power Cable ID
DCCALDATE	LABEL	6/30/2020	DC Calibration Date
ACCALDATE	LABEL	6/30/2020	AC Calibration Date
THERMOSELECT	IQUANT	1	Thermo Select
FRAMEWORKVERSION	LABEL	7.8.2	Framework Version
INSTRUMENTVERSION	LABEL	4.40	Instrument Version
CURVE	TABLE	101
	Pt	T	Vfwd	Vrev	Vstep	Ifwd	Irev	Idif	Sig	Ach	IERange	Over	Temp
	#	s	V	V	V	A	A	A	V	V	#	bits	deg C
	0	0.005	-3.26011E-001	-3.81291E-001	-3.53651E-001	-1.04632E-010	-3.93225E-007	3.93120E-007	-3.75000E-001	3.62706E-004	7	..........a	-327.68
	1	0.01	-3.18487E-001	-3.79524E-001	-3.49006E-001	-4.89113E-008	-9.38507E-008	4.49395E-008	-3.73000E-001	3.36039E-004	7	..........a	-327.68
	2	0.015	-3.16434E-001	-3.77521E-001	-3.46978E-001	-2.15075E-008	-6.33132E-008	4.18057E-008	-3.71000E-001	3.62706E-004	7	..........a	-327.68
	3	0.02	-3.14498E-001	-3.75457E-001	-3.44977E-001	-7.63899E-009	-5.47788E-008	4.71398E-008	-3.69000E-001	3.59373E-004	7	..........a	-327.68
	4	0.025	-3.12421E-001	-3.73491E-001	-3.42956E-001	7.82978E-009	-4.31772E-008	5.10069E-008	-3.67000E-001	3.39373E-004	7	..........a	-327.68
	5	0.03	-3.10474E-001	-3.71464E-001	-3.40969E-001	2.27652E-008	-4.39773E-008	6.67424E-008	-3.65000E-001	3.29373E-004	7	..........a	-327.68
	6	0.035	-3.08494E-001	-3.69428E-001	-3.38961E-001	3.02995E-008	-3.53761E-008	6.56756E-008	-3.63000E-001	3.12706E-004	7	..........a	-327.68
	7	0.04	-3.06481E-001	-3.67458E-001	-3.36969E-001	4.57683E-008	-3.92433E-008	8.50116E-008	-3.61000E-001	3.02706E-004	7	..........a	-327.68
	8	0.045	-3.04471E-001	-3.65438E-001	-3.34954E-001	5.23025E-008	-3.97767E-008	9.20792E-008	-3.59000E-001	3.06039E-004	7	..........a	-327.68
	9	0.05	-3.02504E-001	-3.63484E-001	-3.32994E-001	6.86381E-008	-4.20437E-008	1.10682E-007	-3.57000E-001	3.29373E-004	7	..........a	-327.68
	10	0.055	-3.00488E-001	-3.61451E-001	-3.30969E-001	7.57057E-008	-4.20437E-008	1.17749E-007	-3.55000E-001	3.19373E-004	7	..........a	-327.68
	11	0.06	-2.98491E-001	-3.59454E-001	-3.28973E-001	9.01743E-008	-4.21104E-008	1.32285E-007	-3.53000E-001	3.36039E-004	7	..........a	-327.68
	12	0.065	-2.96494E-001	-3.57457E-001	-3.26976E-001	1.02376E-007	-4.77111E-008	1.50087E-007	-3.51000E-001	3.29373E-004	7	..........a	-327.68
	13	0.07	-2.94518E-001	-3.55444E-001	-3.24981E-001	1.15444E-007	-4.90446E-008	1.64489E-007	-3.49000E-001	3.36039E-004	7	..........a	-327.68
	14	0.075	-2.92491E-001	-3.53484E-001	-3.22988E-001	1.29380E-007	-5.53788E-008	1.84759E-007	-3.47000E-001	2.96039E-004	7	..........a	-327.68
	15	0.08	-2.90478E-001	-3.51498E-001	-3.20988E-001	1.45249E-007	-5.96461E-008	2.04895E-007	-3.45000E-001	3.29373E-004	7	..........a	-327.68
	16	0.085	-2.88521E-001	-3.49407E-001	-3.18964E-001	1.56583E-007	-6.39133E-008	2.20497E-007	-3.43000E-001	3.49373E-004	7	..........a	-327.68
	17	0.09	-2.86461E-001	-3.47434E-001	-3.16948E-001	1.78853E-007	-7.19144E-008	2.50768E-007	-3.41000E-001	3.29373E-004	7	..........a	-327.68
	18	0.095	-2.84474E-001	-3.45414E-001	-3.14944E-001	1.93922E-007	-7.94488E-008	2.73371E-007	-3.39000E-001	3.39373E-004	7	..........a	-327.68
	19	0.1	-2.82501E-001	-3.43464E-001	-3.12982E-001	2.13324E-007	-8.59830E-008	2.99307E-007	-3.37000E-001	2.99373E-004	7	..........a	-327.68
	20	0.105	-2.80511E-001	-3.41458E-001	-3.10984E-001	2.31460E-007	-9.78513E-008	3.29312E-007	-3.35000E-001	3.26039E-004	7	..........a	-327.68
	21	0.11	-2.78491E-001	-3.39478E-001	-3.08984E-001	2.52730E-007	-1.07986E-007	3.60716E-007	-3.33000E-001	3.46039E-004	7	..........a	-327.68
	22	0.115	-2.76501E-001	-3.37471E-001	-3.06986E-001	2.77066E-007	-1.17187E-007	3.94254E-007	-3.31000E-001	3.09373E-004	7	..........a	-327.68
	23	0.12	-2.74521E-001	-3.35438E-001	-3.04979E-001	2.97269E-007	-1.29189E-007	4.26458E-007	-3.29000E-001	3.19373E-004	7	..........a	-327.68
	24	0.125	-2.72511E-001	-3.33498E-001	-3.03004E-001	3.20406E-007	-1.37657E-007	4.58062E-007	-3.27000E-001	3.16039E-004	7	..........a	-327.68
	25	0.13	-2.70484E-001	-3.31474E-001	-3.00979E-001	3.44276E-007	-1.51659E-007	4.95934E-007	-3.25000E-001	3.16039E-004	7	..........a	-327.68
	26	0.135	-2.68474E-001	-3.29518E-001	-2.98996E-001	3.69679E-007	-1.64860E-007	5.34540E-007	-3.23000E-001	3.42706E-004	7	..........a	-327.68
	27	0.14	-2.66471E-001	-3.27507E-001	-2.96989E-001	3.97083E-007	-1.79196E-007	5.76279E-007	-3.21000E-001	3.06039E-004	7	..........a	-327.68
	28	0.145	-2.64514E-001	-3.25558E-001	-2.95036E-001	4.23686E-007	-1.93798E-007	6.17484E-007	-3.19000E-001	3.02706E-004	7	..........a	-327.68
	29	0.15	-2.62494E-001	-3.23528E-001	-2.93011E-001	4.45823E-007	-2.06866E-007	6.52689E-007	-3.17000E-001	3.36039E-004	7	..........a	-327.68
	30	0.155	-2.60494E-001	-3.21498E-001	-2.90996E-001	4.78961E-007	-2.25402E-007	7.04363E-007	-3.15000E-001	3.19373E-004	7	..........a	-327.68
	31	0.16	-2.58414E-001	-3.19471E-001	-2.88943E-001	5.05164E-007	-2.40471E-007	7.45635E-007	-3.13000E-001	3.06039E-004	7	..........a	-327.68
	32	0.165	-2.56504E-001	-3.17511E-001	-2.87008E-001	5.33301E-007	-2.52672E-007	7.85974E-007	-3.11000E-001	3.16039E-004	7	..........a	-327.68
	33	0.17	-2.54498E-001	-3.15508E-001	-2.85003E-001	5.58905E-007	-2.75409E-007	8.34314E-007	-3.09000E-001	3.42706E-004	7	..........a	-327.68
	34	0.175	-2.52471E-001	-3.13554E-001	-2.83013E-001	5.88042E-007	-2.84277E-007	8.72319E-007	-3.07000E-001	3.09373E-004	7	..........a	-327.68
	35	0.18	-2.50431E-001	-3.11511E-001	-2.80971E-001	6.12912E-007	-3.03879E-007	9.16792E-007	-3.05000E-001	3.09373E-004	7	..........a	-327.68
	36	0.185	-2.48488E-001	-3.09494E-001	-2.78991E-001	6.38049E-007	-3.15481E-007	9.53530E-007	-3.03000E-001	3.12706E-004	7	..........a	-327.68
	37	0.19	-2.46468E-001	-3.07554E-001	-2.77011E-001	6.65186E-007	-3.31683E-007	9.96869E-007	-3.01000E-001	3.69373E-004	7	..........a	-327.68
	38	0.195	-2.44451E-001	-3.05537E-001	-2.74994E-001	6.85055E-007	-3.46952E-007	1.03201E-006	-2.99000E-001	3.52706E-004	7	..........a	-327.68
	39	0.2	-2.42458E-001	-3.03558E-001	-2.73008E-001	7.07525E-007	-3.59154E-007	1.06668E-006	-2.97000E-001	3.59373E-004	7	..........a	-327.68
	40	0.205	-2.40401E-001	-3.01571E-001	-2.70986E-001	7.23861E-007	-3.72355E-007	1.09622E-006	-2.95000E-001	3.16039E-004	7	..........a	-327.68
	41	0.21	-2.38428E-001	-2.99548E-001	-2.68988E-001	7.47064E-007	-3.83557E-007	1.13062E-006	-2.93000E-001	3.02706E-004	7	..........a	-327.68
	42	0.215	-2.36421E-001	-2.97548E-001	-2.66984E-001	7.55598E-007	-3.94558E-007	1.15016E-006	-2.91000E-001	3.76039E-004	7	..........a	-327.68
	43	0.22	-2.34431E-001	-2.95481E-001	-2.64956E-001	7.66800E-007	-3.98359E-007	1.16516E-006	-2.89000E-001	3.92706E-004	7	..........a	-327.68
	44	0.225	-2.32451E-001	-2.93504E-001	-2.62978E-001	7.75134E-007	-4.12027E-007	1.18716E-006	-2.87000E-001	3.39373E-004	7	..........a	-327.68
	45	0.23	-2.30401E-001	-2.91534E-001	-2.60968E-001	7.77468E-007	-4.13428E-007	1.19090E-006	-2.85000E-001	2.96039E-004	7	..........a	-327.68
	46	0.235	-2.28464E-001	-2.89518E-001	-2.58991E-001	7.82735E-007	-4.20095E-007	1.20283E-006	-2.83000E-001	3.22706E-004	7	..........a	-327.68
	47	0.24	-2.26391E-001	-2.87508E-001	-2.56949E-001	7.80335E-007	-4.19562E-007	1.19990E-006	-2.81000E-001	3.19373E-004	7	..........a	-327.68
	48	0.245	-2.24424E-001	-2.85508E-001	-2.54966E-001	7.76334E-007	-4.22229E-007	1.19856E-006	-2.79000E-001	3.26039E-004	7	..........a	-327.68
	49	0.25	-2.22438E-001	-2.83491E-001	-2.52964E-001	7.69534E-007	-4.18695E-007	1.18823E-006	-2.77000E-001	3.49373E-004	7	..........a	-327.68
	50	0.255	-2.20398E-001	-2.81491E-001	-2.50944E-001	7.60399E-007	-4.13761E-007	1.17416E-006	-2.75000E-001	3.16039E-004	7	..........a	-327.68
	51	0.26	-2.18418E-001	-2.79464E-001	-2.48941E-001	7.42797E-007	-4.12961E-007	1.15576E-006	-2.73000E-001	3.46039E-004	7	..........a	-327.68
	52	0.265	-2.16414E-001	-2.77458E-001	-2.46936E-001	7.30595E-007	-4.01559E-007	1.13215E-006	-2.71000E-001	3.46039E-004	7	..........a	-327.68
	53	0.27	-2.14468E-001	-2.75428E-001	-2.44948E-001	7.07592E-007	-3.95025E-007	1.10262E-006	-2.69000E-001	3.62706E-004	7	..........a	-327.68
	54	0.275	-2.12461E-001	-2.73444E-001	-2.42953E-001	6.89789E-007	-3.84290E-007	1.07408E-006	-2.67000E-001	3.39373E-004	7	..........a	-327.68
	55	0.28	-2.10421E-001	-2.71428E-001	-2.40924E-001	6.66853E-007	-3.74556E-007	1.04141E-006	-2.65000E-001	2.92706E-004	7	..........a	-327.68
	56	0.285	-2.08461E-001	-2.69431E-001	-2.38946E-001	6.39383E-007	-3.61287E-007	1.00067E-006	-2.63000E-001	3.22706E-004	7	..........a	-327.68
	57	0.29	-2.06441E-001	-2.67374E-001	-2.36908E-001	6.19046E-007	-3.47085E-007	9.66132E-007	-2.61000E-001	3.32706E-004	7	..........a	-327.68
	58	0.295	-2.04488E-001	-2.65374E-001	-2.34931E-001	5.85575E-007	-3.31950E-007	9.17525E-007	-2.59000E-001	3.69373E-004	7	..........a	-327.68
	59	0.3	-2.02461E-001	-2.63378E-001	-2.32919E-001	5.60972E-007	-3.15814E-007	8.76786E-007	-2.57000E-001	3.69373E-004	7	..........a	-327.68
	60	0.305	-2.00471E-001	-2.61314E-001	-2.30893E-001	5.34502E-007	-2.99679E-007	8.34180E-007	-2.55000E-001	3.42706E-004	7	..........a	-327.68
	61	0.31	-1.98501E-001	-2.59291E-001	-2.28896E-001	5.05631E-007	-2.85610E-007	7.91241E-007	-2.53000E-001	3.32706E-004	7	..........a	-327.68
	62	0.315	-1.96481E-001	-2.57291E-001	-2.26886E-001	4.76427E-007	-2.66941E-007	7.43368E-007	-2.51000E-001	3.49373E-004	7	..........a	-327.68
	63	0.32	-1.94521E-001	-2.55304E-001	-2.24913E-001	4.49223E-007	-2.50472E-007	6.99695E-007	-2.49000E-001	3.29373E-004	7	..........a	-327.68
	64	0.325	-1.92514E-001	-2.53307E-001	-2.22911E-001	4.22953E-007	-2.31670E-007	6.54623E-007	-2.47000E-001	3.06039E-004	7	..........a	-327.68
	65	0.33	-1.90531E-001	-2.51261E-001	-2.20896E-001	3.93882E-007	-2.17801E-007	6.11683E-007	-2.45000E-001	3.46039E-004	7	..........a	-327.68
	66	0.335	-1.88528E-001	-2.49254E-001	-2.18891E-001	3.62278E-007	-1.97065E-007	5.59343E-007	-2.43000E-001	3.36039E-004	7	..........a	-327.68
	67	0.34	-1.86571E-001	-2.47281E-001	-2.16926E-001	3.41809E-007	-1.79862E-007	5.21671E-007	-2.41000E-001	3.42706E-004	7	..........a	-327.68
	68	0.345	-1.84568E-001	-2.45218E-001	-2.14893E-001	3.16005E-007	-1.63594E-007	4.79599E-007	-2.39000E-001	3.26039E-004	7	..........a	-327.68
	69	0.35	-1.82524E-001	-2.43264E-001	-2.12894E-001	2.90002E-007	-1.45124E-007	4.35126E-007	-2.37000E-001	3.56039E-004	7	..........a	-327.68
	70	0.355	-1.80551E-001	-2.41194E-001	-2.10873E-001	2.65265E-007	-1.31389E-007	3.96654E-007	-2.35000E-001	3.32706E-004	7	..........a	-327.68
	71	0.36	-1.78581E-001	-2.39214E-001	-2.08898E-001	2.44462E-007	-1.13453E-007	3.57915E-007	-2.33000E-001	3.56039E-004	7	..........a	-327.68
	72	0.365	-1.76578E-001	-2.37248E-001	-2.06913E-001	2.22726E-007	-9.60510E-008	3.18777E-007	-2.31000E-001	3.32706E-004	7	..........a	-327.68
	73	0.37	-1.74601E-001	-2.35178E-001	-2.04889E-001	2.01656E-007	-8.33160E-008	2.84972E-007	-2.29000E-001	3.02706E-004	7	..........a	-327.68
	74	0.375	-1.72651E-001	-2.33171E-001	-2.02911E-001	1.86187E-007	-6.66470E-008	2.52834E-007	-2.27000E-001	3.09373E-004	7	..........a	-327.68
	75	0.38	-1.70604E-001	-2.31171E-001	-2.00888E-001	1.66051E-007	-4.89780E-008	2.15029E-007	-2.25000E-001	2.79373E-004	7	..........a	-327.68
	76	0.385	-1.68624E-001	-2.29178E-001	-1.98901E-001	1.48382E-007	-3.97100E-008	1.88092E-007	-2.23000E-001	3.49373E-004	7	..........a	-327.68
	77	0.39	-1.66601E-001	-2.27164E-001	-1.96883E-001	1.30780E-007	-2.09741E-008	1.51754E-007	-2.21000E-001	3.06039E-004	7	..........a	-327.68
	78	0.395	-1.64644E-001	-2.25154E-001	-1.94899E-001	1.17378E-007	-1.09728E-008	1.28351E-007	-2.19000E-001	3.49373E-004	7	..........a	-327.68
	79	0.4	-1.62701E-001	-2.23151E-001	-1.92926E-001	1.00909E-007	2.62907E-009	9.82801E-008	-2.17000E-001	3.46039E-004	7	..........a	-327.68
	80	0.405	-1.60708E-001	-2.21161E-001	-1.90934E-001	9.06411E-008	1.37639E-008	7.68771E-008	-2.15000E-001	3.32706E-004	7	..........a	-327.68
	81	0.41	-1.58658E-001	-2.19151E-001	-1.88904E-001	7.61058E-008	2.22984E-008	5.38073E-008	-2.13000E-001	2.89373E-004	7	..........a	-327.68
	82	0.415	-1.56648E-001	-2.17108E-001	-1.86878E-001	6.75713E-008	3.85673E-008	2.90039E-008	-2.11000E-001	3.49373E-004	7	..........a	-327.68
	83	0.42	-1.54688E-001	-2.15074E-001	-1.84881E-001	5.27026E-008	4.58350E-008	6.86761E-009	-2.09000E-001	2.99373E-004	7	..........a	-327.68
	84	0.425	-1.52704E-001	-2.13174E-001	-1.82939E-001	4.46348E-008	5.82366E-008	-1.36018E-008	-2.07000E-001	3.66039E-004	7	..........a	-327.68
	85	0.43	-1.50698E-001	-2.11111E-001	-1.80904E-001	3.63670E-008	6.39708E-008	-2.76038E-008	-2.05000E-001	3.26039E-004	7	..........a	-327.68
	86	0.435	-1.48744E-001	-2.09068E-001	-1.78906E-001	2.34986E-008	7.47056E-008	-5.12070E-008	-2.03000E-001	3.22706E-004	7	..........a	-327.68
	87	0.44	-1.46688E-001	-2.07101E-001	-1.76894E-001	2.22317E-008	8.34401E-008	-6.12083E-008	-2.01000E-001	3.89373E-004	7	..........a	-327.68
	88	0.445	-1.44751E-001	-2.05091E-001	-1.74921E-001	9.29665E-009	9.02410E-008	-8.09444E-008	-1.99000E-001	3.69373E-004	7	..........a	-327.68
	89	0.45	-1.42751E-001	-2.03154E-001	-1.72953E-001	6.49627E-009	9.92422E-008	-9.27460E-008	-1.97000E-001	2.99373E-004	7	..........a	-327.68
	90	0.455	-1.40708E-001	-2.01111E-001	-1.70909E-001	-2.10490E-009	1.04443E-007	-1.06548E-007	-1.95000E-001	3.26039E-004	7	..........a	-327.68
	91	0.46	-1.38718E-001	-1.99118E-001	-1.68918E-001	-4.17185E-009	1.09444E-007	-1.13615E-007	-1.93000E-001	3.06039E-004	7	..........a	-327.68
	92	0.465	-1.36731E-001	-1.97128E-001	-1.66929E-001	-1.10395E-008	1.17911E-007	-1.28951E-007	-1.91000E-001	3.46039E-004	7	..........a	-327.68
	93	0.47	-1.34748E-001	-1.95114E-001	-1.64931E-001	-1.54401E-008	1.24379E-007	-1.39819E-007	-1.89000E-001	3.62706E-004	7	..........a	-327.68
	94	0.475	-1.32771E-001	-1.93118E-001	-1.62944E-001	-1.98407E-008	1.27713E-007	-1.47553E-007	-1.87000E-001	3.39373E-004	7	..........a	-327.68
	95	0.48	-1.30721E-001	-1.91061E-001	-1.60891E-001	-2.20410E-008	1.35581E-007	-1.57621E-007	-1.85000E-001	3.49373E-004	7	..........a	-327.68
	96	0.485	-1.28721E-001	-1.89078E-001	-1.58899E-001	-2.31078E-008	1.35381E-007	-1.58488E-007	-1.83000E-001	3.39373E-004	7	..........a	-327.68
	97	0.49	-1.26768E-001	-1.87048E-001	-1.56908E-001	-2.67083E-008	1.46182E-007	-1.72890E-007	-1.81000E-001	2.96039E-004	7	..........a	-327.68
	98	0.495	-1.24761E-001	-1.85044E-001	-1.54903E-001	-2.88419E-008	1.46382E-007	-1.75224E-007	-1.79000E-001	3.19373E-004	7	..........a	-327.68
	99	0.5	-1.22778E-001	-1.83068E-001	-1.52923E-001	-3.36425E-008	1.51783E-007	-1.85425E-007	-1.77000E-001	3.36039E-004	7	..........a	-327.68
	100	0.505	-1.20764E-001	-1.81094E-001	-1.50929E-001	-3.19090E-008	1.56983E-007	-1.88892E-007	-1.75000E-001	3.36039E-004	7	..........a	-327.68
