EXPLAIN
TAG	SQUARE_WAVE
TITLE	LABEL	Square Wave Voltammetry	Test Identifier
DATE	LABEL	8/25/2020	Date
TIME	LABEL	14:53:13	Time
NOTES	NOTES	1	Notes...
	
PSTAT	PSTAT	REF600-24079	Potentiostat
VINIT	QUANT	-3.50000E-001	Initial E (V)
VFINAL	QUANT	-1.50000E-001	Final E (V)
STEPSIZE	QUANT	2.00000E+000	Step Size (mV)
TIMERRES	QUANT	3.33340E-005	&Timer Resolution
FREQUENCY	QUANT	5.00000E+000	Frequency (Hz)
PULSESIZE	QUANT	2.50000E+001	Pulse Size E (mV)
PULSEON	QUANT	2.00000E-001	Pulse &Time (s)
NOISEREJECT	TOGGLE	F	Noise Rejection
AREA	QUANT	2.00000E-002	Sample Area (cm^2)
IMODE	SELECTOR	1	I/E Range Mode
IRANGE	QUANT	1.00000E-003	Max Current (mA)
EQDELAY	IQUANT	10	Equil. Time (s)
IRCOMP	SELECTOR	0	IRComp
PFCOR	QUANT	5.00000E+001	PF Corr. (ohm)
CYCLES	IQUANT	101	C&ycles (#)
ELECTRODETYPE	SELECTOR	0	Electrode Type
STRIPPING	TOGGLE	F	Used for Stripping
POLARITY	TOGGLE	F	Signal Polarity
LINEFREQ	IQUANT	60	Line Frequency (Hz)
INTPERIOD	QUANT	3.3334E-005	Integration Period (s)
SEQUENCER	TOGGLE	TRUE	Run as Sequence
PSTATMODEL	IQUANT	4	Pstat Model
PSTATSECTION	LABEL	REF600-24079	Pstat Section
PSTATSERIALNO	LABEL	24079	Pstat Serial Number
CTRLMODE	IQUANT	1	Control Mode
ELECTROMETER	IQUANT	0	RE=0 or CS=1
IESTAB	IQUANT	2	I/E Stability
CASPEED	IQUANT	6	Control Amp Speed
CONVENTION	IQUANT	1	Current Convention
ICHRANGE	IQUANT	2	Ich Range
ICHRANGEMODE	TOGGLE	F	Ich Auto Range
ICHOFFSETENABLE	TOGGLE	F	Ich Offset Enable
ICHOFFSET	QUANT	0	Ich Offset (V)
ICHFILTER	IQUANT	2	Ich Filter
VCHRANGE	IQUANT	2	Vch Range
VCHRANGEMODE	TOGGLE	F	Vch Auto Range
VCHOFFSETENABLE	TOGGLE	F	Vch Offset Enable
VCHOFFSET	QUANT	0	Vch Offset (V)
VCHFILTER	IQUANT	2	Vch Filter
ACHRANGE	IQUANT	2	Ach Range
ACHOFFSETENABLE	TOGGLE	F	Ach Offset Enable
ACHOFFSET	QUANT	0	Ach Offset (V)
ACHFILTER	IQUANT	1	Ach Filter
IERANGELOWERLIMIT	IQUANT	1	I/E Range Lower Limit
IERANGEMODE	TOGGLE	F	I/E AutoRange
IERANGE	IQUANT	6	I/E Range
POSFEEDENABLE	TOGGLE	F	Positive Feedback IR Comp
POSFEEDRESISTANCE	QUANT	0	Positive Feedback Resistance (ohm)
ACHSELECT	IQUANT	0	Ach Select
SENSECABLEID	IQUANT	13	Sense Cable ID
PWRCABLEID	IQUANT	13	Power Cable ID
DCCALDATE	LABEL	6/30/2020	DC Calibration Date
ACCALDATE	LABEL	6/30/2020	AC Calibration Date
THERMOSELECT	IQUANT	1	Thermo Select
FRAMEWORKVERSION	LABEL	7.8.2	Framework Version
INSTRUMENTVERSION	LABEL	4.40	Instrument Version
CURVE	TABLE	101
	Pt	T	Vfwd	Vrev	Vstep	Ifwd	Irev	Idif	Sig	Ach	IERange	Over	Temp
	#	s	V	V	V	A	A	A	V	V	#	bits	deg C
	0	0.2	-3.24955E-001	-3.74926E-001	-3.49940E-001	-6.62359E-009	-2.43602E-008	1.77366E-008	-3.75000E-001	4.14956E-004	6	..........a	-327.68
	1	0.4	-3.22915E-001	-3.72964E-001	-3.47939E-001	-1.01763E-010	-2.19304E-008	2.18286E-008	-3.73000E-001	4.15623E-004	6	..........a	-327.68
	2	0.6	-3.20958E-001	-3.70847E-001	-3.45903E-001	1.12556E-009	-2.07396E-008	2.18651E-008	-3.71000E-001	4.07123E-004	6	..........a	-327.68
	3	0.8	-3.18885E-001	-3.69084E-001	-3.43984E-001	1.70080E-009	-2.01145E-008	2.18153E-008	-3.69000E-001	3.99539E-004	6	..........a	-327.68
	4	1	-3.17013E-001	-3.66920E-001	-3.41966E-001	2.26704E-009	-1.94964E-008	2.17634E-008	-3.67000E-001	3.93789E-004	6	..........a	-327.68
	5	1.2	-3.14942E-001	-3.65001E-001	-3.39972E-001	2.65375E-009	-1.91304E-008	2.17841E-008	-3.65000E-001	3.97289E-004	6	..........a	-327.68
	6	1.4	-3.13026E-001	-3.62872E-001	-3.37949E-001	3.05064E-009	-1.86631E-008	2.17138E-008	-3.63000E-001	4.03206E-004	6	..........a	-327.68
	7	1.6	-3.10943E-001	-3.61034E-001	-3.35988E-001	3.42419E-009	-1.84403E-008	2.18644E-008	-3.61000E-001	4.03206E-004	6	..........a	-327.68
	8	1.8	-3.09020E-001	-3.58929E-001	-3.33974E-001	3.79407E-009	-1.81009E-008	2.18950E-008	-3.59000E-001	4.10206E-004	6	..........a	-327.68
	9	2	-3.06900E-001	-3.57018E-001	-3.31959E-001	4.17145E-009	-1.77612E-008	2.19326E-008	-3.57000E-001	4.02956E-004	6	..........a	-327.68
	10	2.2	-3.05036E-001	-3.54907E-001	-3.29972E-001	4.49549E-009	-1.75578E-008	2.20533E-008	-3.55000E-001	4.03206E-004	6	..........a	-327.68
	11	2.4	-3.02959E-001	-3.53007E-001	-3.27983E-001	4.82853E-009	-1.73193E-008	2.21478E-008	-3.53000E-001	4.09123E-004	6	..........a	-327.68
	12	2.6	-3.01022E-001	-3.50924E-001	-3.25973E-001	5.19191E-009	-1.72144E-008	2.24064E-008	-3.51000E-001	4.00706E-004	6	..........a	-327.68
	13	2.8	-2.98926E-001	-3.48971E-001	-3.23948E-001	5.64914E-009	-1.69802E-008	2.26294E-008	-3.49000E-001	3.95123E-004	6	..........a	-327.68
	14	3	-2.97001E-001	-3.46915E-001	-3.21958E-001	6.00735E-009	-1.68891E-008	2.28964E-008	-3.47000E-001	4.01206E-004	6	..........a	-327.68
	15	3.2	-2.94957E-001	-3.45106E-001	-3.20031E-001	6.48041E-009	-1.68419E-008	2.33223E-008	-3.45000E-001	3.87956E-004	6	..........a	-327.68
	16	3.4	-2.92967E-001	-3.42906E-001	-3.17937E-001	6.94713E-009	-1.67469E-008	2.36940E-008	-3.43000E-001	3.96289E-004	6	..........a	-327.68
	17	3.6	-2.90863E-001	-3.40970E-001	-3.15917E-001	7.41786E-009	-1.66497E-008	2.40676E-008	-3.41000E-001	3.94873E-004	6	..........a	-327.68
	18	3.8	-2.89038E-001	-3.38878E-001	-3.13958E-001	8.00310E-009	-1.67657E-008	2.47688E-008	-3.39000E-001	3.92539E-004	6	..........a	-327.68
	19	4	-2.86932E-001	-3.37011E-001	-3.11971E-001	8.47333E-009	-1.66759E-008	2.51492E-008	-3.37000E-001	3.84956E-004	6	..........a	-327.68
	20	4.2	-2.84996E-001	-3.34923E-001	-3.09959E-001	9.22792E-009	-1.69152E-008	2.61432E-008	-3.35000E-001	3.96123E-004	6	..........a	-327.68
	21	4.4	-2.82892E-001	-3.32996E-001	-3.07944E-001	9.84000E-009	-1.69337E-008	2.67737E-008	-3.33000E-001	3.94039E-004	6	..........a	-327.68
	22	4.6	-2.81054E-001	-3.30887E-001	-3.05971E-001	1.05356E-008	-1.70284E-008	2.75640E-008	-3.31000E-001	3.96123E-004	6	..........a	-327.68
	23	4.8	-2.78946E-001	-3.29014E-001	-3.03980E-001	1.12237E-008	-1.72178E-008	2.84415E-008	-3.29000E-001	3.90039E-004	6	..........a	-327.68
	24	5	-2.77002E-001	-3.26914E-001	-3.01958E-001	1.18438E-008	-1.75463E-008	2.93901E-008	-3.27000E-001	3.83706E-004	6	..........a	-327.68
	25	5.2	-2.74908E-001	-3.24978E-001	-2.99943E-001	1.26539E-008	-1.78008E-008	3.04547E-008	-3.25000E-001	3.78956E-004	6	..........a	-327.68
	26	5.4	-2.72996E-001	-3.22922E-001	-2.97959E-001	1.35155E-008	-1.81052E-008	3.16207E-008	-3.23000E-001	3.93956E-004	6	..........a	-327.68
	27	5.6	-2.70958E-001	-3.20948E-001	-2.95953E-001	1.43264E-008	-1.86105E-008	3.29369E-008	-3.21000E-001	3.78289E-004	6	..........a	-327.68
	28	5.8	-2.68977E-001	-3.18897E-001	-2.93937E-001	1.50680E-008	-1.89908E-008	3.40588E-008	-3.19000E-001	3.86206E-004	6	..........a	-327.68
	29	6	-2.66848E-001	-3.16993E-001	-2.91920E-001	1.60378E-008	-1.94942E-008	3.55320E-008	-3.17000E-001	3.83956E-004	6	..........a	-327.68
	30	6.2	-2.65058E-001	-3.14906E-001	-2.89982E-001	1.67937E-008	-2.01098E-008	3.69035E-008	-3.15000E-001	3.96706E-004	6	..........a	-327.68
	31	6.4	-2.62935E-001	-3.13008E-001	-2.87971E-001	1.75965E-008	-2.05134E-008	3.81099E-008	-3.13000E-001	3.94206E-004	6	..........a	-327.68
	32	6.6	-2.61014E-001	-3.10913E-001	-2.85963E-001	1.84479E-008	-2.12148E-008	3.96627E-008	-3.11000E-001	3.97539E-004	6	..........a	-327.68
	33	6.8	-2.58888E-001	-3.08997E-001	-2.83943E-001	1.91267E-008	-2.17679E-008	4.08945E-008	-3.09000E-001	3.96206E-004	6	..........a	-327.68
	34	7	-2.57023E-001	-3.06899E-001	-2.81961E-001	1.98531E-008	-2.24744E-008	4.23275E-008	-3.07000E-001	3.94123E-004	6	..........a	-327.68
	35	7.2	-2.54956E-001	-3.05030E-001	-2.79993E-001	2.04425E-008	-2.32410E-008	4.36836E-008	-3.05000E-001	3.98956E-004	6	..........a	-327.68
	36	7.4	-2.53025E-001	-3.02935E-001	-2.77980E-001	2.09899E-008	-2.39381E-008	4.49281E-008	-3.03000E-001	4.02123E-004	6	..........a	-327.68
	37	7.6	-2.50911E-001	-3.01000E-001	-2.75955E-001	2.14558E-008	-2.46887E-008	4.61445E-008	-3.01000E-001	3.99373E-004	6	..........a	-327.68
	38	7.8	-2.48986E-001	-2.98917E-001	-2.73951E-001	2.18942E-008	-2.53411E-008	4.72353E-008	-2.99000E-001	3.98289E-004	6	..........a	-327.68
	39	8	-2.46924E-001	-2.96957E-001	-2.71941E-001	2.21142E-008	-2.59027E-008	4.80169E-008	-2.97000E-001	3.89289E-004	6	..........a	-327.68
	40	8.2	-2.44956E-001	-2.94905E-001	-2.69931E-001	2.23683E-008	-2.66138E-008	4.89821E-008	-2.95000E-001	4.01873E-004	6	..........a	-327.68
	41	8.4	-2.42845E-001	-2.92920E-001	-2.67882E-001	2.24673E-008	-2.71415E-008	4.96088E-008	-2.93000E-001	4.00206E-004	6	..........a	-327.68
	42	8.6	-2.41070E-001	-2.90857E-001	-2.65963E-001	2.25086E-008	-2.76746E-008	5.01832E-008	-2.91000E-001	3.95706E-004	6	..........a	-327.68
	43	8.8	-2.38932E-001	-2.88978E-001	-2.63955E-001	2.25171E-008	-2.81753E-008	5.06924E-008	-2.89000E-001	3.93456E-004	6	..........a	-327.68
	44	9	-2.36990E-001	-2.86898E-001	-2.61944E-001	2.24063E-008	-2.84717E-008	5.08780E-008	-2.87000E-001	3.98956E-004	6	..........a	-327.68
	45	9.2	-2.34863E-001	-2.84982E-001	-2.59923E-001	2.22022E-008	-2.89359E-008	5.11382E-008	-2.85000E-001	3.96956E-004	6	..........a	-327.68
	46	9.4	-2.33006E-001	-2.82883E-001	-2.57945E-001	2.19247E-008	-2.91706E-008	5.10953E-008	-2.83000E-001	3.84456E-004	6	..........a	-327.68
	47	9.6	-2.30920E-001	-2.81031E-001	-2.55975E-001	2.16070E-008	-2.91776E-008	5.07846E-008	-2.81000E-001	3.90123E-004	6	..........a	-327.68
	48	9.8	-2.29003E-001	-2.78911E-001	-2.53957E-001	2.12416E-008	-2.93733E-008	5.06149E-008	-2.79000E-001	4.02206E-004	6	..........a	-327.68
	49	10	-2.26897E-001	-2.76976E-001	-2.51936E-001	2.09399E-008	-2.92223E-008	5.01622E-008	-2.77000E-001	4.05623E-004	6	..........a	-327.68
	50	10.2	-2.24990E-001	-2.74906E-001	-2.49948E-001	2.05370E-008	-2.89429E-008	4.94800E-008	-2.75000E-001	3.99789E-004	6	..........a	-327.68
	51	10.4	-2.22924E-001	-2.72949E-001	-2.47937E-001	2.00731E-008	-2.87162E-008	4.87894E-008	-2.73000E-001	4.08789E-004	6	..........a	-327.68
	52	10.6	-2.20967E-001	-2.70898E-001	-2.45933E-001	1.95317E-008	-2.82630E-008	4.77947E-008	-2.71000E-001	3.99539E-004	6	..........a	-327.68
	53	10.8	-2.18919E-001	-2.68927E-001	-2.43923E-001	1.92099E-008	-2.78021E-008	4.70120E-008	-2.69000E-001	3.90706E-004	6	..........a	-327.68
	54	11	-2.17071E-001	-2.66835E-001	-2.41953E-001	1.86846E-008	-2.72405E-008	4.59252E-008	-2.67000E-001	3.93373E-004	6	..........a	-327.68
	55	11.2	-2.14914E-001	-2.65052E-001	-2.39983E-001	1.83032E-008	-2.66006E-008	4.49039E-008	-2.65000E-001	3.90456E-004	6	..........a	-327.68
	56	11.4	-2.12998E-001	-2.62901E-001	-2.37949E-001	1.76652E-008	-2.59397E-008	4.36049E-008	-2.63000E-001	3.97373E-004	6	..........a	-327.68
	57	11.6	-2.10884E-001	-2.60973E-001	-2.35929E-001	1.72634E-008	-2.51293E-008	4.23927E-008	-2.61000E-001	3.96123E-004	6	..........a	-327.68
	58	11.8	-2.09003E-001	-2.58870E-001	-2.33937E-001	1.67299E-008	-2.42433E-008	4.09732E-008	-2.59000E-001	3.90039E-004	6	..........a	-327.68
	59	12	-2.06945E-001	-2.56995E-001	-2.31970E-001	1.62917E-008	-2.33947E-008	3.96864E-008	-2.57000E-001	3.79623E-004	6	..........a	-327.68
	60	12.2	-2.04973E-001	-2.54943E-001	-2.29958E-001	1.57683E-008	-2.23979E-008	3.81662E-008	-2.55000E-001	3.81623E-004	6	..........a	-327.68
	61	12.4	-2.02887E-001	-2.53013E-001	-2.27950E-001	1.52710E-008	-2.13793E-008	3.66503E-008	-2.53000E-001	3.77873E-004	6	..........a	-327.68
	62	12.6	-2.01000E-001	-2.50913E-001	-2.25956E-001	1.49467E-008	-2.04338E-008	3.53805E-008	-2.51000E-001	3.83706E-004	6	..........a	-327.68
	63	12.8	-1.98961E-001	-2.48984E-001	-2.23972E-001	1.45486E-008	-1.96291E-008	3.41777E-008	-2.49000E-001	3.75956E-004	6	..........a	-327.68
	64	13	-1.96994E-001	-2.46915E-001	-2.21955E-001	1.42421E-008	-1.86353E-008	3.28774E-008	-2.47000E-001	3.70623E-004	6	..........a	-327.68
	65	13.2	-1.94918E-001	-2.44940E-001	-2.19929E-001	1.37348E-008	-1.77025E-008	3.14373E-008	-2.45000E-001	4.08623E-004	6	..........a	-327.68
	66	13.4	-1.92988E-001	-2.42833E-001	-2.17911E-001	1.35221E-008	-1.68062E-008	3.03284E-008	-2.43000E-001	3.86206E-004	6	..........a	-327.68
	67	13.6	-1.90991E-001	-2.41069E-001	-2.16030E-001	1.31826E-008	-1.60001E-008	2.91827E-008	-2.41000E-001	3.88789E-004	6	..........a	-327.68
	68	13.8	-1.88954E-001	-2.38913E-001	-2.13933E-001	1.28104E-008	-1.52397E-008	2.80501E-008	-2.39000E-001	3.81123E-004	6	..........a	-327.68
	69	14	-1.86862E-001	-2.36930E-001	-2.11896E-001	1.25628E-008	-1.44911E-008	2.70539E-008	-2.37000E-001	3.76956E-004	6	..........a	-327.68
	70	14.2	-1.85001E-001	-2.34864E-001	-2.09932E-001	1.22991E-008	-1.37558E-008	2.60550E-008	-2.35000E-001	3.83623E-004	6	..........a	-327.68
	71	14.4	-1.82931E-001	-2.32998E-001	-2.07965E-001	1.21526E-008	-1.31876E-008	2.53402E-008	-2.33000E-001	3.86956E-004	6	..........a	-327.68
	72	14.6	-1.80949E-001	-2.30902E-001	-2.05926E-001	1.19263E-008	-1.25875E-008	2.45138E-008	-2.31000E-001	3.95456E-004	6	..........a	-327.68
	73	14.8	-1.78877E-001	-2.28939E-001	-2.03908E-001	1.16634E-008	-1.20601E-008	2.37235E-008	-2.29000E-001	3.89873E-004	6	..........a	-327.68
	74	15	-1.76995E-001	-2.26891E-001	-2.01943E-001	1.15079E-008	-1.16157E-008	2.31236E-008	-2.27000E-001	3.88789E-004	6	..........a	-327.68
	75	15.2	-1.74946E-001	-2.24967E-001	-1.99956E-001	1.13729E-008	-1.11143E-008	2.24872E-008	-2.25000E-001	3.85289E-004	6	..........a	-327.68
	76	15.4	-1.72998E-001	-2.22897E-001	-1.97947E-001	1.12343E-008	-1.05331E-008	2.17674E-008	-2.23000E-001	3.80039E-004	6	..........a	-327.68
	77	15.6	-1.70906E-001	-2.20940E-001	-1.95923E-001	1.11038E-008	-1.01937E-008	2.12975E-008	-2.21000E-001	3.89206E-004	6	..........a	-327.68
	78	15.8	-1.68987E-001	-2.18905E-001	-1.93946E-001	1.09995E-008	-9.93251E-009	2.09320E-008	-2.19000E-001	3.87123E-004	6	..........a	-327.68
	79	16	-1.66933E-001	-2.17088E-001	-1.92011E-001	1.10158E-008	-9.53246E-009	2.05483E-008	-2.17000E-001	3.88289E-004	6	..........a	-327.68
	80	16.2	-1.64894E-001	-2.14894E-001	-1.89894E-001	1.09261E-008	-9.20992E-009	2.01361E-008	-2.15000E-001	3.90206E-004	6	..........a	-327.68
	81	16.4	-1.62857E-001	-2.12932E-001	-1.87895E-001	1.08560E-008	-8.92472E-009	1.97807E-008	-2.13000E-001	3.92206E-004	6	..........a	-327.68
	82	16.6	-1.60980E-001	-2.10879E-001	-1.85930E-001	1.08246E-008	-8.69619E-009	1.95208E-008	-2.11000E-001	3.98539E-004	6	..........a	-327.68
	83	16.8	-1.58916E-001	-2.08968E-001	-1.83942E-001	1.07561E-008	-8.40949E-009	1.91656E-008	-2.09000E-001	3.88623E-004	6	..........a	-327.68
	84	17	-1.56971E-001	-2.06901E-001	-1.81936E-001	1.08060E-008	-8.21296E-009	1.90189E-008	-2.07000E-001	3.83456E-004	6	..........a	-327.68
	85	17.2	-1.54876E-001	-2.04962E-001	-1.79919E-001	1.07680E-008	-7.95360E-009	1.87215E-008	-2.05000E-001	3.91456E-004	6	..........a	-327.68
	86	17.4	-1.53042E-001	-2.02882E-001	-1.77962E-001	1.07081E-008	-7.75407E-009	1.84622E-008	-2.03000E-001	3.96373E-004	6	..........a	-327.68
	87	17.6	-1.50937E-001	-2.00996E-001	-1.75967E-001	1.06894E-008	-7.65672E-009	1.83462E-008	-2.01000E-001	4.00206E-004	6	..........a	-327.68
	88	17.8	-1.48996E-001	-1.98910E-001	-1.73953E-001	1.06733E-008	-7.46537E-009	1.81386E-008	-1.99000E-001	3.87039E-004	6	..........a	-327.68
	89	18	-1.46906E-001	-1.96947E-001	-1.71927E-001	1.07219E-008	-7.32952E-009	1.80515E-008	-1.97000E-001	3.86289E-004	6	..........a	-327.68
	90	18.2	-1.44973E-001	-1.94907E-001	-1.69940E-001	1.06899E-008	-7.13799E-009	1.78279E-008	-1.95000E-001	3.91956E-004	6	..........a	-327.68
	91	18.4	-1.42945E-001	-1.92922E-001	-1.67934E-001	1.06778E-008	-6.97564E-009	1.76534E-008	-1.93000E-001	3.92456E-004	6	..........a	-327.68
	92	18.6	-1.40965E-001	-1.90889E-001	-1.65927E-001	1.07058E-008	-7.02981E-009	1.77356E-008	-1.91000E-001	3.87706E-004	6	..........a	-327.68
	93	18.8	-1.38842E-001	-1.88990E-001	-1.63916E-001	1.07063E-008	-6.91880E-009	1.76251E-008	-1.89000E-001	3.89706E-004	6	..........a	-327.68
	94	19	-1.37047E-001	-1.86873E-001	-1.61960E-001	1.07410E-008	-6.80428E-009	1.75452E-008	-1.87000E-001	3.86456E-004	6	..........a	-327.68
	95	19.2	-1.34928E-001	-1.84988E-001	-1.59958E-001	1.08338E-008	-6.69427E-009	1.75281E-008	-1.85000E-001	3.93373E-004	6	..........a	-327.68
	96	19.4	-1.32963E-001	-1.82887E-001	-1.57925E-001	1.07578E-008	-6.62176E-009	1.73795E-008	-1.83000E-001	3.81289E-004	6	..........a	-327.68
	97	19.6	-1.30868E-001	-1.80962E-001	-1.55915E-001	1.08261E-008	-6.61676E-009	1.74429E-008	-1.81000E-001	3.92206E-004	6	..........a	-327.68
	98	19.8	-1.28978E-001	-1.78883E-001	-1.53930E-001	1.08233E-008	-6.52941E-009	1.73527E-008	-1.79000E-001	3.91123E-004	6	..........a	-327.68
	99	20	-1.26942E-001	-1.76992E-001	-1.51967E-001	1.08485E-008	-6.48157E-009	1.73300E-008	-1.77000E-001	3.87789E-004	6	..........a	-327.68
	100	20.2	-1.24983E-001	-1.74915E-001	-1.49949E-001	1.08940E-008	-6.32555E-009	1.72195E-008	-1.75000E-001	3.92539E-004	6	..........a	-327.68
