EXPLAIN
TAG	SQUARE_WAVE
TITLE	LABEL	Square Wave Voltammetry	Test Identifier
DATE	LABEL	8/25/2020	Date
TIME	LABEL	13:19:55	Time
NOTES	NOTES	1	Notes...
	
PSTAT	PSTAT	REF600-24079	Potentiostat
VINIT	QUANT	-3.50000E-001	Initial E (V)
VFINAL	QUANT	-1.50000E-001	Final E (V)
STEPSIZE	QUANT	2.00000E+000	Step Size (mV)
TIMERRES	QUANT	3.33340E-005	&Timer Resolution
FREQUENCY	QUANT	1.00000E+001	Frequency (Hz)
PULSESIZE	QUANT	2.50000E+001	Pulse Size E (mV)
PULSEON	QUANT	1.00000E-001	Pulse &Time (s)
NOISEREJECT	TOGGLE	F	Noise Rejection
AREA	QUANT	2.00000E-002	Sample Area (cm^2)
IMODE	SELECTOR	1	I/E Range Mode
IRANGE	QUANT	1.00000E-003	Max Current (mA)
EQDELAY	IQUANT	10	Equil. Time (s)
IRCOMP	SELECTOR	0	IRComp
PFCOR	QUANT	5.00000E+001	PF Corr. (ohm)
CYCLES	IQUANT	101	C&ycles (#)
ELECTRODETYPE	SELECTOR	0	Electrode Type
STRIPPING	TOGGLE	F	Used for Stripping
POLARITY	TOGGLE	F	Signal Polarity
LINEFREQ	IQUANT	60	Line Frequency (Hz)
INTPERIOD	QUANT	3.3334E-005	Integration Period (s)
SEQUENCER	TOGGLE	TRUE	Run as Sequence
PSTATMODEL	IQUANT	4	Pstat Model
PSTATSECTION	LABEL	REF600-24079	Pstat Section
PSTATSERIALNO	LABEL	24079	Pstat Serial Number
CTRLMODE	IQUANT	1	Control Mode
ELECTROMETER	IQUANT	0	RE=0 or CS=1
IESTAB	IQUANT	2	I/E Stability
CASPEED	IQUANT	6	Control Amp Speed
CONVENTION	IQUANT	1	Current Convention
ICHRANGE	IQUANT	2	Ich Range
ICHRANGEMODE	TOGGLE	F	Ich Auto Range
ICHOFFSETENABLE	TOGGLE	F	Ich Offset Enable
ICHOFFSET	QUANT	0	Ich Offset (V)
ICHFILTER	IQUANT	2	Ich Filter
VCHRANGE	IQUANT	2	Vch Range
VCHRANGEMODE	TOGGLE	F	Vch Auto Range
VCHOFFSETENABLE	TOGGLE	F	Vch Offset Enable
VCHOFFSET	QUANT	0	Vch Offset (V)
VCHFILTER	IQUANT	2	Vch Filter
ACHRANGE	IQUANT	2	Ach Range
ACHOFFSETENABLE	TOGGLE	F	Ach Offset Enable
ACHOFFSET	QUANT	0	Ach Offset (V)
ACHFILTER	IQUANT	1	Ach Filter
IERANGELOWERLIMIT	IQUANT	1	I/E Range Lower Limit
IERANGEMODE	TOGGLE	F	I/E AutoRange
IERANGE	IQUANT	6	I/E Range
POSFEEDENABLE	TOGGLE	F	Positive Feedback IR Comp
POSFEEDRESISTANCE	QUANT	0	Positive Feedback Resistance (ohm)
ACHSELECT	IQUANT	0	Ach Select
SENSECABLEID	IQUANT	13	Sense Cable ID
PWRCABLEID	IQUANT	13	Power Cable ID
DCCALDATE	LABEL	6/30/2020	DC Calibration Date
ACCALDATE	LABEL	6/30/2020	AC Calibration Date
THERMOSELECT	IQUANT	1	Thermo Select
FRAMEWORKVERSION	LABEL	7.8.2	Framework Version
INSTRUMENTVERSION	LABEL	4.40	Instrument Version
CURVE	TABLE	101
	Pt	T	Vfwd	Vrev	Vstep	Ifwd	Irev	Idif	Sig	Ach	IERange	Over	Temp
	#	s	V	V	V	A	A	A	V	V	#	bits	deg C
	0	0.1	-3.24894E-001	-3.74902E-001	-3.49898E-001	-5.14640E-009	-3.08110E-008	2.56646E-008	-3.75000E-001	4.16706E-004	6	..........a	-327.68
	1	0.2	-3.22881E-001	-3.72909E-001	-3.47895E-001	5.98001E-009	-2.67312E-008	3.27112E-008	-3.73000E-001	3.91206E-004	6	..........a	-327.68
	2	0.3	-3.20916E-001	-3.70801E-001	-3.45858E-001	8.26497E-009	-2.50946E-008	3.33596E-008	-3.71000E-001	3.95873E-004	6	..........a	-327.68
	3	0.4	-3.18882E-001	-3.68980E-001	-3.43931E-001	9.44179E-009	-2.42388E-008	3.36806E-008	-3.69000E-001	3.75706E-004	6	..........a	-327.68
	4	0.5	-3.16771E-001	-3.66882E-001	-3.41826E-001	1.01465E-008	-2.37468E-008	3.38933E-008	-3.67000E-001	4.07039E-004	6	..........a	-327.68
	5	0.6	-3.14846E-001	-3.64883E-001	-3.39865E-001	1.07086E-008	-2.31050E-008	3.38136E-008	-3.65000E-001	3.90873E-004	6	..........a	-327.68
	6	0.7	-3.12885E-001	-3.62829E-001	-3.37857E-001	1.13274E-008	-2.27403E-008	3.40677E-008	-3.63000E-001	3.86706E-004	6	..........a	-327.68
	7	0.8	-3.10881E-001	-3.60906E-001	-3.35893E-001	1.19568E-008	-2.27160E-008	3.46727E-008	-3.61000E-001	4.04039E-004	6	..........a	-327.68
	8	0.9	-3.08872E-001	-3.58882E-001	-3.33877E-001	1.27239E-008	-2.22883E-008	3.50121E-008	-3.59000E-001	3.91706E-004	6	..........a	-327.68
	9	1	-3.06852E-001	-3.56917E-001	-3.31884E-001	1.32139E-008	-2.21406E-008	3.53545E-008	-3.57000E-001	4.05706E-004	6	..........a	-327.68
	10	1.1	-3.04902E-001	-3.54862E-001	-3.29882E-001	1.37677E-008	-2.20012E-008	3.57689E-008	-3.55000E-001	4.00373E-004	6	..........a	-327.68
	11	1.2	-3.02926E-001	-3.52931E-001	-3.27928E-001	1.43424E-008	-2.19652E-008	3.63076E-008	-3.53000E-001	3.97873E-004	6	..........a	-327.68
	12	1.3	-3.00925E-001	-3.50899E-001	-3.25912E-001	1.50005E-008	-2.19829E-008	3.69834E-008	-3.51000E-001	4.04539E-004	6	..........a	-327.68
	13	1.4	-2.98878E-001	-3.48919E-001	-3.23899E-001	1.59439E-008	-2.19239E-008	3.78678E-008	-3.49000E-001	3.97373E-004	6	..........a	-327.68
	14	1.5	-2.96921E-001	-3.46893E-001	-3.21907E-001	1.66024E-008	-2.20896E-008	3.86919E-008	-3.47000E-001	4.09873E-004	6	..........a	-327.68
	15	1.6	-2.94930E-001	-3.44979E-001	-3.19955E-001	1.73358E-008	-2.21339E-008	3.94697E-008	-3.45000E-001	4.01706E-004	6	..........a	-327.68
	16	1.7	-2.92811E-001	-3.42881E-001	-3.17846E-001	1.83182E-008	-2.24629E-008	4.07812E-008	-3.43000E-001	4.05706E-004	6	..........a	-327.68
	17	1.8	-2.90817E-001	-3.40891E-001	-3.15854E-001	1.94831E-008	-2.25423E-008	4.20253E-008	-3.41000E-001	3.98039E-004	6	..........a	-327.68
	18	1.9	-2.88905E-001	-3.38826E-001	-3.13866E-001	2.04492E-008	-2.29927E-008	4.34419E-008	-3.39000E-001	4.03039E-004	6	..........a	-327.68
	19	2	-2.86871E-001	-3.36884E-001	-3.11878E-001	2.14743E-008	-2.35631E-008	4.50374E-008	-3.37000E-001	4.05873E-004	6	..........a	-327.68
	20	2.1	-2.84870E-001	-3.34875E-001	-3.09873E-001	2.28355E-008	-2.40331E-008	4.68686E-008	-3.35000E-001	3.94873E-004	6	..........a	-327.68
	21	2.2	-2.82838E-001	-3.32887E-001	-3.07862E-001	2.39430E-008	-2.46119E-008	4.85548E-008	-3.33000E-001	4.03039E-004	6	..........a	-327.68
	22	2.3	-2.80944E-001	-3.30852E-001	-3.05898E-001	2.53915E-008	-2.52570E-008	5.06484E-008	-3.31000E-001	4.03206E-004	6	..........a	-327.68
	23	2.4	-2.78899E-001	-3.28926E-001	-3.03912E-001	2.70107E-008	-2.58544E-008	5.28651E-008	-3.29000E-001	4.07373E-004	6	..........a	-327.68
	24	2.5	-2.76913E-001	-3.26904E-001	-3.01909E-001	2.85662E-008	-2.66958E-008	5.52620E-008	-3.27000E-001	4.09373E-004	6	..........a	-327.68
	25	2.6	-2.74878E-001	-3.24904E-001	-2.99891E-001	3.02611E-008	-2.76856E-008	5.79467E-008	-3.25000E-001	4.07873E-004	6	..........a	-327.68
	26	2.7	-2.72922E-001	-3.22893E-001	-2.97907E-001	3.18070E-008	-2.89491E-008	6.07561E-008	-3.23000E-001	4.02539E-004	6	..........a	-327.68
	27	2.8	-2.70904E-001	-3.20911E-001	-2.95908E-001	3.35438E-008	-2.97439E-008	6.32877E-008	-3.21000E-001	4.06873E-004	6	..........a	-327.68
	28	2.9	-2.68911E-001	-3.18877E-001	-2.93894E-001	3.53944E-008	-3.08837E-008	6.62781E-008	-3.19000E-001	4.09373E-004	6	..........a	-327.68
	29	3	-2.66797E-001	-3.16837E-001	-2.91817E-001	3.71740E-008	-3.22942E-008	6.94682E-008	-3.17000E-001	4.07706E-004	6	..........a	-327.68
	30	3.1	-2.64918E-001	-3.14847E-001	-2.89883E-001	3.88242E-008	-3.37587E-008	7.25829E-008	-3.15000E-001	4.05373E-004	6	..........a	-327.68
	31	3.2	-2.62894E-001	-3.12889E-001	-2.87891E-001	4.05064E-008	-3.51976E-008	7.57040E-008	-3.13000E-001	3.94373E-004	6	..........a	-327.68
	32	3.3	-2.60826E-001	-3.10912E-001	-2.85869E-001	4.20816E-008	-3.65664E-008	7.86480E-008	-3.11000E-001	4.11706E-004	6	..........a	-327.68
	33	3.4	-2.58827E-001	-3.08823E-001	-2.83825E-001	4.36898E-008	-3.84333E-008	8.21231E-008	-3.09000E-001	3.98873E-004	6	..........a	-327.68
	34	3.5	-2.56889E-001	-3.06856E-001	-2.81873E-001	4.51620E-008	-4.01439E-008	8.53058E-008	-3.07000E-001	4.02706E-004	6	..........a	-327.68
	35	3.6	-2.54902E-001	-3.04927E-001	-2.79914E-001	4.63641E-008	-4.17267E-008	8.80909E-008	-3.05000E-001	4.01706E-004	6	..........a	-327.68
	36	3.7	-2.52903E-001	-3.02913E-001	-2.77908E-001	4.75033E-008	-4.33716E-008	9.08749E-008	-3.03000E-001	4.03039E-004	6	..........a	-327.68
	37	3.8	-2.50862E-001	-3.00924E-001	-2.75893E-001	4.83214E-008	-4.51118E-008	9.34332E-008	-3.01000E-001	4.00206E-004	6	..........a	-327.68
	38	3.9	-2.48898E-001	-2.98893E-001	-2.73895E-001	4.92885E-008	-4.66114E-008	9.58999E-008	-2.99000E-001	3.94873E-004	6	..........a	-327.68
	39	4	-2.46898E-001	-2.96912E-001	-2.71905E-001	4.97236E-008	-4.81535E-008	9.78771E-008	-2.97000E-001	3.97539E-004	6	..........a	-327.68
	40	4.1	-2.44901E-001	-2.94891E-001	-2.69896E-001	5.00446E-008	-4.95431E-008	9.95877E-008	-2.95000E-001	4.02706E-004	6	..........a	-327.68
	41	4.2	-2.42799E-001	-2.92837E-001	-2.67818E-001	5.02700E-008	-5.07615E-008	1.01032E-007	-2.93000E-001	4.00206E-004	6	..........a	-327.68
	42	4.3	-2.40923E-001	-2.90817E-001	-2.65870E-001	5.01363E-008	-5.20894E-008	1.02226E-007	-2.91000E-001	4.03706E-004	6	..........a	-327.68
	43	4.4	-2.38867E-001	-2.88906E-001	-2.63886E-001	5.00710E-008	-5.29398E-008	1.03011E-007	-2.89000E-001	4.06873E-004	6	..........a	-327.68
	44	4.5	-2.36880E-001	-2.86864E-001	-2.61872E-001	4.94862E-008	-5.36259E-008	1.03112E-007	-2.87000E-001	4.15706E-004	6	..........a	-327.68
	45	4.6	-2.34810E-001	-2.84893E-001	-2.59851E-001	4.91112E-008	-5.44043E-008	1.03516E-007	-2.85000E-001	4.12039E-004	6	..........a	-327.68
	46	4.7	-2.32877E-001	-2.82838E-001	-2.57858E-001	4.81904E-008	-5.47577E-008	1.02948E-007	-2.83000E-001	4.05873E-004	6	..........a	-327.68
	47	4.8	-2.30867E-001	-2.80942E-001	-2.55905E-001	4.74016E-008	-5.49424E-008	1.02344E-007	-2.81000E-001	4.00039E-004	6	..........a	-327.68
	48	4.9	-2.28858E-001	-2.78868E-001	-2.53863E-001	4.63041E-008	-5.51838E-008	1.01488E-007	-2.79000E-001	4.16706E-004	6	..........a	-327.68
	49	5	-2.26838E-001	-2.76900E-001	-2.51869E-001	4.52740E-008	-5.47767E-008	1.00051E-007	-2.77000E-001	4.16873E-004	6	..........a	-327.68
	50	5.1	-2.24883E-001	-2.74865E-001	-2.49874E-001	4.41812E-008	-5.41993E-008	9.83805E-008	-2.75000E-001	4.14873E-004	6	..........a	-327.68
	51	5.2	-2.22883E-001	-2.72890E-001	-2.47886E-001	4.30241E-008	-5.35836E-008	9.66076E-008	-2.73000E-001	4.14539E-004	6	..........a	-327.68
	52	5.3	-2.20892E-001	-2.70881E-001	-2.45886E-001	4.17746E-008	-5.26988E-008	9.44734E-008	-2.71000E-001	4.15206E-004	6	..........a	-327.68
	53	5.4	-2.18876E-001	-2.68902E-001	-2.43889E-001	4.04764E-008	-5.15320E-008	9.20084E-008	-2.69000E-001	4.05539E-004	6	..........a	-327.68
	54	5.5	-2.16952E-001	-2.66790E-001	-2.41871E-001	3.92052E-008	-5.04898E-008	8.96951E-008	-2.67000E-001	4.07539E-004	6	..........a	-327.68
	55	5.6	-2.14857E-001	-2.64922E-001	-2.39889E-001	3.77697E-008	-4.92063E-008	8.69761E-008	-2.65000E-001	4.11206E-004	6	..........a	-327.68
	56	5.7	-2.12871E-001	-2.62876E-001	-2.37873E-001	3.65012E-008	-4.76725E-008	8.41737E-008	-2.63000E-001	4.07539E-004	6	..........a	-327.68
	57	5.8	-2.10820E-001	-2.60880E-001	-2.35850E-001	3.53087E-008	-4.59333E-008	8.12420E-008	-2.61000E-001	4.03039E-004	6	..........a	-327.68
	58	5.9	-2.08856E-001	-2.58836E-001	-2.33846E-001	3.40252E-008	-4.43504E-008	7.83756E-008	-2.59000E-001	3.97706E-004	6	..........a	-327.68
	59	6	-2.06862E-001	-2.56885E-001	-2.31873E-001	3.28434E-008	-4.25758E-008	7.54193E-008	-2.57000E-001	4.15206E-004	6	..........a	-327.68
	60	6.1	-2.04839E-001	-2.54897E-001	-2.29868E-001	3.18410E-008	-4.08143E-008	7.26552E-008	-2.55000E-001	4.09873E-004	6	..........a	-327.68
	61	6.2	-2.02830E-001	-2.52857E-001	-2.27843E-001	3.04675E-008	-3.90671E-008	6.95345E-008	-2.53000E-001	3.89039E-004	6	..........a	-327.68
	62	6.3	-2.00901E-001	-2.50869E-001	-2.25885E-001	2.95957E-008	-3.69415E-008	6.65371E-008	-2.51000E-001	3.83539E-004	6	..........a	-327.68
	63	6.4	-1.98895E-001	-2.48909E-001	-2.23902E-001	2.85045E-008	-3.52142E-008	6.37188E-008	-2.49000E-001	3.98206E-004	6	..........a	-327.68
	64	6.5	-1.96894E-001	-2.46900E-001	-2.21897E-001	2.74664E-008	-3.34737E-008	6.09401E-008	-2.47000E-001	3.90706E-004	6	..........a	-327.68
	65	6.6	-1.94865E-001	-2.44896E-001	-2.19880E-001	2.65943E-008	-3.17035E-008	5.82978E-008	-2.45000E-001	4.07873E-004	6	..........a	-327.68
	66	6.7	-1.92904E-001	-2.42785E-001	-2.17844E-001	2.58602E-008	-2.99799E-008	5.58401E-008	-2.43000E-001	3.93039E-004	6	..........a	-327.68
	67	6.8	-1.90883E-001	-2.40893E-001	-2.15888E-001	2.48547E-008	-2.84004E-008	5.32551E-008	-2.41000E-001	4.08039E-004	6	..........a	-327.68
	68	6.9	-1.88798E-001	-2.38876E-001	-2.13837E-001	2.42227E-008	-2.68262E-008	5.10488E-008	-2.39000E-001	3.84706E-004	6	..........a	-327.68
	69	7	-1.86814E-001	-2.36872E-001	-2.11843E-001	2.35332E-008	-2.53823E-008	4.89156E-008	-2.37000E-001	4.02873E-004	6	..........a	-327.68
	70	7.1	-1.84860E-001	-2.34820E-001	-2.09840E-001	2.26538E-008	-2.39698E-008	4.66236E-008	-2.35000E-001	3.88539E-004	6	..........a	-327.68
	71	7.2	-1.82858E-001	-2.32880E-001	-2.07869E-001	2.21624E-008	-2.28360E-008	4.49984E-008	-2.33000E-001	3.97206E-004	6	..........a	-327.68
	72	7.3	-1.80857E-001	-2.30851E-001	-2.05854E-001	2.17197E-008	-2.15882E-008	4.33078E-008	-2.31000E-001	3.92706E-004	6	..........a	-327.68
	73	7.4	-1.78829E-001	-2.28859E-001	-2.03844E-001	2.11073E-008	-2.04630E-008	4.15703E-008	-2.29000E-001	4.00039E-004	6	..........a	-327.68
	74	7.5	-1.76896E-001	-2.26846E-001	-2.01871E-001	2.07729E-008	-1.95286E-008	4.03015E-008	-2.27000E-001	3.97206E-004	6	..........a	-327.68
	75	7.6	-1.74879E-001	-2.24895E-001	-1.99887E-001	2.02865E-008	-1.86978E-008	3.89843E-008	-2.25000E-001	4.01373E-004	6	..........a	-327.68
	76	7.7	-1.72894E-001	-2.22893E-001	-1.97894E-001	1.99561E-008	-1.77690E-008	3.77251E-008	-2.23000E-001	3.78539E-004	6	..........a	-327.68
	77	7.8	-1.70858E-001	-2.20905E-001	-1.95882E-001	1.97751E-008	-1.69872E-008	3.67623E-008	-2.21000E-001	3.96373E-004	6	..........a	-327.68
	78	7.9	-1.68893E-001	-2.18874E-001	-1.93883E-001	1.92914E-008	-1.61045E-008	3.53958E-008	-2.19000E-001	3.91539E-004	6	..........a	-327.68
	79	8	-1.66902E-001	-2.16949E-001	-1.91926E-001	1.90660E-008	-1.56047E-008	3.46707E-008	-2.17000E-001	4.00706E-004	6	..........a	-327.68
	80	8.1	-1.64769E-001	-2.14849E-001	-1.89809E-001	1.87676E-008	-1.50100E-008	3.37776E-008	-2.15000E-001	4.04873E-004	6	..........a	-327.68
	81	8.2	-1.62807E-001	-2.12814E-001	-1.87811E-001	1.86596E-008	-1.42386E-008	3.28982E-008	-2.13000E-001	4.07373E-004	6	..........a	-327.68
	82	8.3	-1.60890E-001	-2.10815E-001	-1.85853E-001	1.85696E-008	-1.39035E-008	3.24731E-008	-2.11000E-001	3.89373E-004	6	..........a	-327.68
	83	8.4	-1.58866E-001	-2.08858E-001	-1.83862E-001	1.82706E-008	-1.33168E-008	3.15874E-008	-2.09000E-001	4.05039E-004	6	..........a	-327.68
	84	8.5	-1.56843E-001	-2.06863E-001	-1.81853E-001	1.80655E-008	-1.30404E-008	3.11060E-008	-2.07000E-001	3.99706E-004	6	..........a	-327.68
	85	8.6	-1.54825E-001	-2.04806E-001	-1.79815E-001	1.80169E-008	-1.25440E-008	3.05609E-008	-2.05000E-001	3.98206E-004	6	..........a	-327.68
	86	8.7	-1.52908E-001	-2.02839E-001	-1.77873E-001	1.79425E-008	-1.20490E-008	2.99915E-008	-2.03000E-001	4.14539E-004	6	..........a	-327.68
	87	8.8	-1.50896E-001	-2.00898E-001	-1.75897E-001	1.78115E-008	-1.20676E-008	2.98791E-008	-2.01000E-001	4.03373E-004	6	..........a	-327.68
	88	8.9	-1.48897E-001	-1.98878E-001	-1.73887E-001	1.76128E-008	-1.16352E-008	2.92481E-008	-1.99000E-001	3.89539E-004	6	..........a	-327.68
	89	9	-1.46853E-001	-1.96886E-001	-1.71870E-001	1.76392E-008	-1.14009E-008	2.90400E-008	-1.97000E-001	3.80039E-004	6	..........a	-327.68
	90	9.1	-1.44887E-001	-1.94875E-001	-1.69881E-001	1.75318E-008	-1.12538E-008	2.87857E-008	-1.95000E-001	3.97873E-004	6	..........a	-327.68
	91	9.2	-1.42903E-001	-1.92894E-001	-1.67898E-001	1.75708E-008	-1.10562E-008	2.86270E-008	-1.93000E-001	3.79706E-004	6	..........a	-327.68
	92	9.3	-1.40899E-001	-1.90861E-001	-1.65880E-001	1.75862E-008	-1.08848E-008	2.84710E-008	-1.91000E-001	3.97039E-004	6	..........a	-327.68
	93	9.4	-1.38788E-001	-1.88786E-001	-1.63787E-001	1.75011E-008	-1.06991E-008	2.82003E-008	-1.89000E-001	3.98873E-004	6	..........a	-327.68
	94	9.5	-1.36877E-001	-1.86815E-001	-1.61846E-001	1.74521E-008	-1.06181E-008	2.80702E-008	-1.87000E-001	3.82706E-004	6	..........a	-327.68
	95	9.6	-1.34885E-001	-1.84868E-001	-1.59877E-001	1.75268E-008	-1.04627E-008	2.79896E-008	-1.85000E-001	4.02706E-004	6	..........a	-327.68
	96	9.7	-1.32830E-001	-1.82849E-001	-1.57839E-001	1.74511E-008	-1.03427E-008	2.77939E-008	-1.83000E-001	3.89373E-004	6	..........a	-327.68
	97	9.8	-1.30814E-001	-1.80855E-001	-1.55834E-001	1.73385E-008	-1.03127E-008	2.76512E-008	-1.81000E-001	3.99373E-004	6	..........a	-327.68
	98	9.9	-1.28865E-001	-1.78830E-001	-1.53847E-001	1.74008E-008	-9.96402E-009	2.73648E-008	-1.79000E-001	3.90039E-004	6	..........a	-327.68
	99	10	-1.26893E-001	-1.76897E-001	-1.51895E-001	1.74571E-008	-9.95968E-009	2.74168E-008	-1.77000E-001	3.82206E-004	6	..........a	-327.68
	100	10.1	-1.24869E-001	-1.74875E-001	-1.49872E-001	1.72908E-008	-9.70965E-009	2.70004E-008	-1.75000E-001	3.86873E-004	6	..........a	-327.68
