EXPLAIN
TAG	SQUARE_WAVE
TITLE	LABEL	Square Wave Voltammetry	Test Identifier
DATE	LABEL	8/25/2020	Date
TIME	LABEL	13:17:34	Time
NOTES	NOTES	1	Notes...
	
PSTAT	PSTAT	REF600-24079	Potentiostat
VINIT	QUANT	-3.50000E-001	Initial E (V)
VFINAL	QUANT	-1.50000E-001	Final E (V)
STEPSIZE	QUANT	2.00000E+000	Step Size (mV)
TIMERRES	QUANT	3.33340E-005	&Timer Resolution
FREQUENCY	QUANT	1.00000E+001	Frequency (Hz)
PULSESIZE	QUANT	2.50000E+001	Pulse Size E (mV)
PULSEON	QUANT	1.00000E-001	Pulse &Time (s)
NOISEREJECT	TOGGLE	F	Noise Rejection
AREA	QUANT	2.00000E-002	Sample Area (cm^2)
IMODE	SELECTOR	1	I/E Range Mode
IRANGE	QUANT	1.00000E-003	Max Current (mA)
EQDELAY	IQUANT	10	Equil. Time (s)
IRCOMP	SELECTOR	0	IRComp
PFCOR	QUANT	5.00000E+001	PF Corr. (ohm)
CYCLES	IQUANT	101	C&ycles (#)
ELECTRODETYPE	SELECTOR	0	Electrode Type
STRIPPING	TOGGLE	F	Used for Stripping
POLARITY	TOGGLE	F	Signal Polarity
LINEFREQ	IQUANT	60	Line Frequency (Hz)
INTPERIOD	QUANT	3.3334E-005	Integration Period (s)
SEQUENCER	TOGGLE	TRUE	Run as Sequence
PSTATMODEL	IQUANT	4	Pstat Model
PSTATSECTION	LABEL	REF600-24079	Pstat Section
PSTATSERIALNO	LABEL	24079	Pstat Serial Number
CTRLMODE	IQUANT	1	Control Mode
ELECTROMETER	IQUANT	0	RE=0 or CS=1
IESTAB	IQUANT	2	I/E Stability
CASPEED	IQUANT	6	Control Amp Speed
CONVENTION	IQUANT	1	Current Convention
ICHRANGE	IQUANT	2	Ich Range
ICHRANGEMODE	TOGGLE	F	Ich Auto Range
ICHOFFSETENABLE	TOGGLE	F	Ich Offset Enable
ICHOFFSET	QUANT	0	Ich Offset (V)
ICHFILTER	IQUANT	2	Ich Filter
VCHRANGE	IQUANT	2	Vch Range
VCHRANGEMODE	TOGGLE	F	Vch Auto Range
VCHOFFSETENABLE	TOGGLE	F	Vch Offset Enable
VCHOFFSET	QUANT	0	Vch Offset (V)
VCHFILTER	IQUANT	2	Vch Filter
ACHRANGE	IQUANT	2	Ach Range
ACHOFFSETENABLE	TOGGLE	F	Ach Offset Enable
ACHOFFSET	QUANT	0	Ach Offset (V)
ACHFILTER	IQUANT	1	Ach Filter
IERANGELOWERLIMIT	IQUANT	1	I/E Range Lower Limit
IERANGEMODE	TOGGLE	F	I/E AutoRange
IERANGE	IQUANT	6	I/E Range
POSFEEDENABLE	TOGGLE	F	Positive Feedback IR Comp
POSFEEDRESISTANCE	QUANT	0	Positive Feedback Resistance (ohm)
ACHSELECT	IQUANT	0	Ach Select
SENSECABLEID	IQUANT	13	Sense Cable ID
PWRCABLEID	IQUANT	13	Power Cable ID
DCCALDATE	LABEL	6/30/2020	DC Calibration Date
ACCALDATE	LABEL	6/30/2020	AC Calibration Date
THERMOSELECT	IQUANT	1	Thermo Select
FRAMEWORKVERSION	LABEL	7.8.2	Framework Version
INSTRUMENTVERSION	LABEL	4.40	Instrument Version
CURVE	TABLE	101
	Pt	T	Vfwd	Vrev	Vstep	Ifwd	Irev	Idif	Sig	Ach	IERange	Over	Temp
	#	s	V	V	V	A	A	A	V	V	#	bits	deg C
	0	0.1	-3.24939E-001	-3.74919E-001	-3.49929E-001	-6.34256E-009	-3.25939E-008	2.62513E-008	-3.75000E-001	3.98539E-004	6	..........a	-327.68
	1	0.2	-3.22898E-001	-3.72934E-001	-3.47916E-001	4.85520E-009	-2.83774E-008	3.32326E-008	-3.73000E-001	3.90539E-004	6	..........a	-327.68
	2	0.3	-3.20944E-001	-3.70819E-001	-3.45881E-001	6.75944E-009	-2.67715E-008	3.35309E-008	-3.71000E-001	3.91706E-004	6	..........a	-327.68
	3	0.4	-3.18926E-001	-3.69034E-001	-3.43980E-001	8.13995E-009	-2.58797E-008	3.40197E-008	-3.69000E-001	3.91206E-004	6	..........a	-327.68
	4	0.5	-3.16849E-001	-3.66910E-001	-3.41879E-001	8.85971E-009	-2.52526E-008	3.41123E-008	-3.67000E-001	3.87206E-004	6	..........a	-327.68
	5	0.6	-3.14869E-001	-3.64930E-001	-3.39900E-001	9.58547E-009	-2.47472E-008	3.43327E-008	-3.65000E-001	3.73206E-004	6	..........a	-327.68
	6	0.7	-3.12922E-001	-3.62838E-001	-3.37880E-001	1.00719E-008	-2.43208E-008	3.43927E-008	-3.63000E-001	3.79206E-004	6	..........a	-327.68
	7	0.8	-3.10923E-001	-3.60961E-001	-3.35942E-001	1.08756E-008	-2.41045E-008	3.49801E-008	-3.61000E-001	3.73039E-004	6	..........a	-327.68
	8	0.9	-3.08916E-001	-3.58898E-001	-3.33907E-001	1.12650E-008	-2.39748E-008	3.52398E-008	-3.59000E-001	3.76206E-004	6	..........a	-327.68
	9	1	-3.06860E-001	-3.56962E-001	-3.31911E-001	1.20955E-008	-2.39125E-008	3.60079E-008	-3.57000E-001	3.88206E-004	6	..........a	-327.68
	10	1.1	-3.04960E-001	-3.54865E-001	-3.29912E-001	1.26832E-008	-2.33707E-008	3.60539E-008	-3.55000E-001	3.77039E-004	6	..........a	-327.68
	11	1.2	-3.02940E-001	-3.52961E-001	-3.27951E-001	1.31063E-008	-2.33827E-008	3.64890E-008	-3.53000E-001	3.79206E-004	6	..........a	-327.68
	12	1.3	-3.00959E-001	-3.50914E-001	-3.25936E-001	1.40137E-008	-2.33567E-008	3.73704E-008	-3.51000E-001	3.83039E-004	6	..........a	-327.68
	13	1.4	-2.98893E-001	-3.48945E-001	-3.23919E-001	1.46288E-008	-2.33884E-008	3.80172E-008	-3.49000E-001	3.82373E-004	6	..........a	-327.68
	14	1.5	-2.96949E-001	-3.46902E-001	-3.21925E-001	1.55509E-008	-2.36348E-008	3.91857E-008	-3.47000E-001	3.88039E-004	6	..........a	-327.68
	15	1.6	-2.94933E-001	-3.45057E-001	-3.19995E-001	1.64037E-008	-2.37028E-008	4.01064E-008	-3.45000E-001	3.81206E-004	6	..........a	-327.68
	16	1.7	-2.92843E-001	-3.42892E-001	-3.17867E-001	1.73735E-008	-2.38104E-008	4.11839E-008	-3.43000E-001	3.90206E-004	6	..........a	-327.68
	17	1.8	-2.90833E-001	-3.40938E-001	-3.15886E-001	1.83416E-008	-2.40561E-008	4.23977E-008	-3.41000E-001	3.94206E-004	6	..........a	-327.68
	18	1.9	-2.88945E-001	-3.38839E-001	-3.13892E-001	1.95791E-008	-2.42935E-008	4.38726E-008	-3.39000E-001	3.94206E-004	6	..........a	-327.68
	19	2	-2.86903E-001	-3.36949E-001	-3.11926E-001	2.06572E-008	-2.48236E-008	4.54808E-008	-3.37000E-001	3.82873E-004	6	..........a	-327.68
	20	2.1	-2.84922E-001	-3.34884E-001	-3.09903E-001	2.18274E-008	-2.52243E-008	4.70517E-008	-3.35000E-001	4.06373E-004	6	..........a	-327.68
	21	2.2	-2.82850E-001	-3.32913E-001	-3.07881E-001	2.35709E-008	-2.60514E-008	4.96223E-008	-3.33000E-001	3.85373E-004	6	..........a	-327.68
	22	2.3	-2.80978E-001	-3.30854E-001	-3.05916E-001	2.47504E-008	-2.66038E-008	5.13542E-008	-3.31000E-001	3.94373E-004	6	..........a	-327.68
	23	2.4	-2.78902E-001	-3.28937E-001	-3.03919E-001	2.64756E-008	-2.72072E-008	5.36828E-008	-3.29000E-001	4.04039E-004	6	..........a	-327.68
	24	2.5	-2.76948E-001	-3.26902E-001	-3.01925E-001	2.80245E-008	-2.83077E-008	5.63322E-008	-3.27000E-001	3.98873E-004	6	..........a	-327.68
	25	2.6	-2.74884E-001	-3.24932E-001	-2.99908E-001	2.95670E-008	-2.91908E-008	5.87578E-008	-3.25000E-001	3.94373E-004	6	..........a	-327.68
	26	2.7	-2.72933E-001	-3.22895E-001	-2.97914E-001	3.14326E-008	-3.01236E-008	6.15562E-008	-3.23000E-001	4.02706E-004	6	..........a	-327.68
	27	2.8	-2.70921E-001	-3.20914E-001	-2.95918E-001	3.30875E-008	-3.14588E-008	6.45462E-008	-3.21000E-001	3.98373E-004	6	..........a	-327.68
	28	2.9	-2.68934E-001	-3.18917E-001	-2.93926E-001	3.50220E-008	-3.24569E-008	6.74789E-008	-3.19000E-001	4.01039E-004	6	..........a	-327.68
	29	3	-2.66814E-001	-3.16891E-001	-2.91852E-001	3.68716E-008	-3.40224E-008	7.08940E-008	-3.17000E-001	4.03373E-004	6	..........a	-327.68
	30	3.1	-2.64993E-001	-3.14867E-001	-2.89930E-001	3.85732E-008	-3.54099E-008	7.39831E-008	-3.15000E-001	3.96373E-004	6	..........a	-327.68
	31	3.2	-2.62907E-001	-3.12935E-001	-2.87921E-001	4.02684E-008	-3.70831E-008	7.73515E-008	-3.13000E-001	3.91706E-004	6	..........a	-327.68
	32	3.3	-2.60866E-001	-3.10893E-001	-2.85880E-001	4.19306E-008	-3.87287E-008	8.06593E-008	-3.11000E-001	3.96373E-004	6	..........a	-327.68
	33	3.4	-2.58840E-001	-3.08887E-001	-2.83863E-001	4.35611E-008	-4.03606E-008	8.39217E-008	-3.09000E-001	4.17373E-004	6	..........a	-327.68
	34	3.5	-2.56930E-001	-3.06871E-001	-2.81900E-001	4.48540E-008	-4.18467E-008	8.67007E-008	-3.07000E-001	4.01039E-004	6	..........a	-327.68
	35	3.6	-2.54909E-001	-3.04965E-001	-2.79937E-001	4.62605E-008	-4.35900E-008	8.98504E-008	-3.05000E-001	4.12539E-004	6	..........a	-327.68
	36	3.7	-2.52932E-001	-3.02917E-001	-2.77924E-001	4.73806E-008	-4.52242E-008	9.26048E-008	-3.03000E-001	4.04206E-004	6	..........a	-327.68
	37	3.8	-2.50875E-001	-3.00956E-001	-2.75915E-001	4.82421E-008	-4.68667E-008	9.51088E-008	-3.01000E-001	3.98539E-004	6	..........a	-327.68
	38	3.9	-2.48929E-001	-2.98898E-001	-2.73913E-001	4.91412E-008	-4.84026E-008	9.75437E-008	-2.99000E-001	3.99039E-004	6	..........a	-327.68
	39	4	-2.46909E-001	-2.96944E-001	-2.71926E-001	4.95439E-008	-5.00975E-008	9.96413E-008	-2.97000E-001	3.95206E-004	6	..........a	-327.68
	40	4.1	-2.44925E-001	-2.94893E-001	-2.69909E-001	4.98906E-008	-5.12376E-008	1.01128E-007	-2.95000E-001	3.94706E-004	6	..........a	-327.68
	41	4.2	-2.42808E-001	-2.92910E-001	-2.67859E-001	4.98653E-008	-5.24648E-008	1.02330E-007	-2.93000E-001	4.06206E-004	6	..........a	-327.68
	42	4.3	-2.40979E-001	-2.90841E-001	-2.65910E-001	4.98123E-008	-5.37673E-008	1.03580E-007	-2.91000E-001	4.17873E-004	6	..........a	-327.68
	43	4.4	-2.38903E-001	-2.88909E-001	-2.63906E-001	4.97139E-008	-5.47837E-008	1.04498E-007	-2.89000E-001	4.11206E-004	6	..........a	-327.68
	44	4.5	-2.36891E-001	-2.86859E-001	-2.61875E-001	4.92768E-008	-5.54465E-008	1.04723E-007	-2.87000E-001	4.05706E-004	6	..........a	-327.68
	45	4.6	-2.34835E-001	-2.84930E-001	-2.59882E-001	4.85414E-008	-5.60836E-008	1.04625E-007	-2.85000E-001	4.17873E-004	6	..........a	-327.68
	46	4.7	-2.32931E-001	-2.82858E-001	-2.57894E-001	4.77987E-008	-5.65543E-008	1.04353E-007	-2.83000E-001	4.15373E-004	6	..........a	-327.68
	47	4.8	-2.30881E-001	-2.80998E-001	-2.55940E-001	4.67739E-008	-5.66370E-008	1.03411E-007	-2.81000E-001	4.22373E-004	6	..........a	-327.68
	48	4.9	-2.28913E-001	-2.78888E-001	-2.53900E-001	4.59124E-008	-5.66176E-008	1.02530E-007	-2.79000E-001	4.10206E-004	6	..........a	-327.68
	49	5	-2.26849E-001	-2.76948E-001	-2.51898E-001	4.47786E-008	-5.63939E-008	1.01173E-007	-2.77000E-001	4.20206E-004	6	..........a	-327.68
	50	5.1	-2.24929E-001	-2.74883E-001	-2.49906E-001	4.35071E-008	-5.57158E-008	9.92230E-008	-2.75000E-001	4.17373E-004	6	..........a	-327.68
	51	5.2	-2.22898E-001	-2.72906E-001	-2.47902E-001	4.23060E-008	-5.50794E-008	9.73854E-008	-2.73000E-001	4.20873E-004	6	..........a	-327.68
	52	5.3	-2.20912E-001	-2.70885E-001	-2.45898E-001	4.10031E-008	-5.41280E-008	9.51311E-008	-2.71000E-001	4.14373E-004	6	..........a	-327.68
	53	5.4	-2.18896E-001	-2.68913E-001	-2.43904E-001	3.97820E-008	-5.29975E-008	9.27795E-008	-2.69000E-001	4.13373E-004	6	..........a	-327.68
	54	5.5	-2.17021E-001	-2.66807E-001	-2.41914E-001	3.82024E-008	-5.17497E-008	8.99521E-008	-2.67000E-001	4.25039E-004	6	..........a	-327.68
	55	5.6	-2.14867E-001	-2.64987E-001	-2.39927E-001	3.70786E-008	-5.03202E-008	8.73988E-008	-2.65000E-001	4.09539E-004	6	..........a	-327.68
	56	5.7	-2.12904E-001	-2.62876E-001	-2.37890E-001	3.56341E-008	-4.88456E-008	8.44798E-008	-2.63000E-001	4.10206E-004	6	..........a	-327.68
	57	5.8	-2.10843E-001	-2.60928E-001	-2.35886E-001	3.43900E-008	-4.71167E-008	8.15067E-008	-2.61000E-001	4.07206E-004	6	..........a	-327.68
	58	5.9	-2.08931E-001	-2.58846E-001	-2.33888E-001	3.31385E-008	-4.53439E-008	7.84823E-008	-2.59000E-001	4.01539E-004	6	..........a	-327.68
	59	6	-2.06900E-001	-2.56932E-001	-2.31916E-001	3.16996E-008	-4.36133E-008	7.53129E-008	-2.57000E-001	3.94206E-004	6	..........a	-327.68
	60	6.1	-2.04921E-001	-2.54899E-001	-2.29910E-001	3.06118E-008	-4.16957E-008	7.23075E-008	-2.55000E-001	4.12873E-004	6	..........a	-327.68
	61	6.2	-2.02856E-001	-2.52910E-001	-2.27883E-001	2.94333E-008	-3.97035E-008	6.91368E-008	-2.53000E-001	3.96039E-004	6	..........a	-327.68
	62	6.3	-2.00938E-001	-2.50884E-001	-2.25911E-001	2.84385E-008	-3.78632E-008	6.63018E-008	-2.51000E-001	4.00373E-004	6	..........a	-327.68
	63	6.4	-1.98913E-001	-2.48939E-001	-2.23926E-001	2.72837E-008	-3.57710E-008	6.30547E-008	-2.49000E-001	3.99706E-004	6	..........a	-327.68
	64	6.5	-1.96940E-001	-2.46915E-001	-2.21927E-001	2.61662E-008	-3.40467E-008	6.02130E-008	-2.47000E-001	3.83039E-004	6	..........a	-327.68
	65	6.6	-1.94889E-001	-2.44932E-001	-2.19910E-001	2.52288E-008	-3.22675E-008	5.74963E-008	-2.45000E-001	3.94706E-004	6	..........a	-327.68
	66	6.7	-1.92936E-001	-2.42809E-001	-2.17872E-001	2.44324E-008	-3.06777E-008	5.51100E-008	-2.43000E-001	3.97873E-004	6	..........a	-327.68
	67	6.8	-1.90907E-001	-2.40968E-001	-2.15937E-001	2.36566E-008	-2.89991E-008	5.26557E-008	-2.41000E-001	3.88539E-004	6	..........a	-327.68
	68	6.9	-1.88883E-001	-2.38899E-001	-2.13891E-001	2.27661E-008	-2.75209E-008	5.02871E-008	-2.39000E-001	3.90373E-004	6	..........a	-327.68
	69	7	-1.86831E-001	-2.36911E-001	-2.11871E-001	2.20404E-008	-2.58807E-008	4.79211E-008	-2.37000E-001	3.96539E-004	6	..........a	-327.68
	70	7.1	-1.84925E-001	-2.34839E-001	-2.09882E-001	2.12580E-008	-2.46312E-008	4.58892E-008	-2.35000E-001	4.01206E-004	6	..........a	-327.68
	71	7.2	-1.82892E-001	-2.32939E-001	-2.07916E-001	2.07399E-008	-2.32407E-008	4.39806E-008	-2.33000E-001	3.95873E-004	6	..........a	-327.68
	72	7.3	-1.80901E-001	-2.30889E-001	-2.05895E-001	2.02412E-008	-2.21529E-008	4.23941E-008	-2.31000E-001	3.89039E-004	6	..........a	-327.68
	73	7.4	-1.78859E-001	-2.28919E-001	-2.03889E-001	1.96044E-008	-2.11178E-008	4.07222E-008	-2.29000E-001	3.91873E-004	6	..........a	-327.68
	74	7.5	-1.76942E-001	-2.26861E-001	-2.01901E-001	1.92644E-008	-1.99623E-008	3.92267E-008	-2.27000E-001	3.86039E-004	6	..........a	-327.68
	75	7.6	-1.74899E-001	-2.24939E-001	-1.99919E-001	1.88710E-008	-1.91308E-008	3.80018E-008	-2.25000E-001	3.89706E-004	6	..........a	-327.68
	76	7.7	-1.72948E-001	-2.22909E-001	-1.97928E-001	1.84876E-008	-1.80801E-008	3.65677E-008	-2.23000E-001	4.04873E-004	6	..........a	-327.68
	77	7.8	-1.70884E-001	-2.20930E-001	-1.95907E-001	1.82762E-008	-1.73613E-008	3.56375E-008	-2.21000E-001	4.01206E-004	6	..........a	-327.68
	78	7.9	-1.68933E-001	-2.18896E-001	-1.93915E-001	1.79012E-008	-1.64028E-008	3.43040E-008	-2.19000E-001	3.94206E-004	6	..........a	-327.68
	79	8	-1.66923E-001	-2.17019E-001	-1.91971E-001	1.75078E-008	-1.60175E-008	3.35253E-008	-2.17000E-001	3.98206E-004	6	..........a	-327.68
	80	8.1	-1.64815E-001	-2.14882E-001	-1.89849E-001	1.74975E-008	-1.52577E-008	3.27552E-008	-2.15000E-001	3.93373E-004	6	..........a	-327.68
	81	8.2	-1.62824E-001	-2.12880E-001	-1.87852E-001	1.70611E-008	-1.47610E-008	3.18220E-008	-2.13000E-001	3.87539E-004	6	..........a	-327.68
	82	8.3	-1.60921E-001	-2.10842E-001	-1.85882E-001	1.68801E-008	-1.41452E-008	3.10253E-008	-2.11000E-001	3.97539E-004	6	..........a	-327.68
	83	8.4	-1.58898E-001	-2.08927E-001	-1.83912E-001	1.66330E-008	-1.39015E-008	3.05346E-008	-2.09000E-001	3.87206E-004	6	..........a	-327.68
	84	8.5	-1.56898E-001	-2.06897E-001	-1.81898E-001	1.66087E-008	-1.34145E-008	3.00232E-008	-2.07000E-001	3.77206E-004	6	..........a	-327.68
	85	8.6	-1.54836E-001	-2.04886E-001	-1.79861E-001	1.64790E-008	-1.30151E-008	2.94941E-008	-2.05000E-001	3.78706E-004	6	..........a	-327.68
	86	8.7	-1.52942E-001	-2.02857E-001	-1.77900E-001	1.64610E-008	-1.25807E-008	2.90417E-008	-2.03000E-001	3.90873E-004	6	..........a	-327.68
	87	8.8	-1.50910E-001	-2.00946E-001	-1.75928E-001	1.64017E-008	-1.23133E-008	2.87150E-008	-2.01000E-001	3.95206E-004	6	..........a	-327.68
	88	8.9	-1.48915E-001	-1.98906E-001	-1.73911E-001	1.62246E-008	-1.19749E-008	2.81996E-008	-1.99000E-001	3.87539E-004	6	..........a	-327.68
	89	9	-1.46870E-001	-1.96921E-001	-1.71895E-001	1.59606E-008	-1.18096E-008	2.77702E-008	-1.97000E-001	3.86206E-004	6	..........a	-327.68
	90	9.1	-1.44912E-001	-1.94884E-001	-1.69898E-001	1.60233E-008	-1.14829E-008	2.75062E-008	-1.95000E-001	3.87039E-004	6	..........a	-327.68
	91	9.2	-1.42929E-001	-1.92917E-001	-1.67923E-001	1.60150E-008	-1.13762E-008	2.73912E-008	-1.93000E-001	3.87706E-004	6	..........a	-327.68
	92	9.3	-1.40922E-001	-1.90884E-001	-1.65903E-001	1.60440E-008	-1.11732E-008	2.72171E-008	-1.91000E-001	3.78373E-004	6	..........a	-327.68
	93	9.4	-1.38803E-001	-1.88854E-001	-1.63828E-001	1.58513E-008	-1.09678E-008	2.68191E-008	-1.89000E-001	3.81706E-004	6	..........a	-327.68
	94	9.5	-1.36923E-001	-1.86835E-001	-1.61879E-001	1.59599E-008	-1.10415E-008	2.70014E-008	-1.87000E-001	3.89706E-004	6	..........a	-327.68
	95	9.6	-1.34924E-001	-1.84932E-001	-1.59928E-001	1.58053E-008	-1.07271E-008	2.65324E-008	-1.85000E-001	3.89373E-004	6	..........a	-327.68
	96	9.7	-1.32853E-001	-1.82881E-001	-1.57867E-001	1.56616E-008	-1.06234E-008	2.62850E-008	-1.83000E-001	3.91539E-004	6	..........a	-327.68
	97	9.8	-1.30831E-001	-1.80887E-001	-1.55859E-001	1.57903E-008	-1.03254E-008	2.61157E-008	-1.81000E-001	3.94873E-004	6	..........a	-327.68
	98	9.9	-1.28903E-001	-1.78848E-001	-1.53876E-001	1.57989E-008	-1.04814E-008	2.62803E-008	-1.79000E-001	3.73039E-004	6	..........a	-327.68
	99	10	-1.26925E-001	-1.76955E-001	-1.51940E-001	1.58146E-008	-1.02387E-008	2.60533E-008	-1.77000E-001	3.85539E-004	6	..........a	-327.68
	100	10.1	-1.24904E-001	-1.74907E-001	-1.49905E-001	1.59209E-008	-1.02167E-008	2.61377E-008	-1.75000E-001	3.92539E-004	6	..........a	-327.68
