EXPLAIN
TAG	SQUARE_WAVE
TITLE	LABEL	Square Wave Voltammetry	Test Identifier
DATE	LABEL	8/31/2020	Date
TIME	LABEL	14:44:13	Time
NOTES	NOTES	1	Notes...
	
PSTAT	PSTAT	REF600-24079	Potentiostat
VINIT	QUANT	-3.50000E-001	Initial E (V)
VFINAL	QUANT	-1.50000E-001	Final E (V)
STEPSIZE	QUANT	2.00000E+000	Step Size (mV)
TIMERRES	QUANT	3.33340E-005	&Timer Resolution
FREQUENCY	QUANT	1.00000E+002	Frequency (Hz)
PULSESIZE	QUANT	2.50000E+001	Pulse Size E (mV)
PULSEON	QUANT	1.00000E-002	Pulse &Time (s)
NOISEREJECT	TOGGLE	F	Noise Rejection
AREA	QUANT	2.00000E-002	Sample Area (cm^2)
IMODE	SELECTOR	1	I/E Range Mode
IRANGE	QUANT	1.00000E-002	Max Current (mA)
EQDELAY	IQUANT	10	Equil. Time (s)
IRCOMP	SELECTOR	0	IRComp
PFCOR	QUANT	5.00000E+001	PF Corr. (ohm)
CYCLES	IQUANT	101	C&ycles (#)
ELECTRODETYPE	SELECTOR	0	Electrode Type
STRIPPING	TOGGLE	F	Used for Stripping
POLARITY	TOGGLE	F	Signal Polarity
LINEFREQ	IQUANT	60	Line Frequency (Hz)
INTPERIOD	QUANT	3.3334E-005	Integration Period (s)
SEQUENCER	TOGGLE	TRUE	Run as Sequence
PSTATMODEL	IQUANT	4	Pstat Model
PSTATSECTION	LABEL	REF600-24079	Pstat Section
PSTATSERIALNO	LABEL	24079	Pstat Serial Number
CTRLMODE	IQUANT	1	Control Mode
ELECTROMETER	IQUANT	0	RE=0 or CS=1
IESTAB	IQUANT	2	I/E Stability
CASPEED	IQUANT	6	Control Amp Speed
CONVENTION	IQUANT	1	Current Convention
ICHRANGE	IQUANT	2	Ich Range
ICHRANGEMODE	TOGGLE	F	Ich Auto Range
ICHOFFSETENABLE	TOGGLE	F	Ich Offset Enable
ICHOFFSET	QUANT	0	Ich Offset (V)
ICHFILTER	IQUANT	2	Ich Filter
VCHRANGE	IQUANT	2	Vch Range
VCHRANGEMODE	TOGGLE	F	Vch Auto Range
VCHOFFSETENABLE	TOGGLE	F	Vch Offset Enable
VCHOFFSET	QUANT	0	Vch Offset (V)
VCHFILTER	IQUANT	2	Vch Filter
ACHRANGE	IQUANT	2	Ach Range
ACHOFFSETENABLE	TOGGLE	F	Ach Offset Enable
ACHOFFSET	QUANT	0	Ach Offset (V)
ACHFILTER	IQUANT	1	Ach Filter
IERANGELOWERLIMIT	IQUANT	1	I/E Range Lower Limit
IERANGEMODE	TOGGLE	F	I/E AutoRange
IERANGE	IQUANT	7	I/E Range
POSFEEDENABLE	TOGGLE	F	Positive Feedback IR Comp
POSFEEDRESISTANCE	QUANT	0	Positive Feedback Resistance (ohm)
ACHSELECT	IQUANT	0	Ach Select
SENSECABLEID	IQUANT	13	Sense Cable ID
PWRCABLEID	IQUANT	13	Power Cable ID
DCCALDATE	LABEL	6/30/2020	DC Calibration Date
ACCALDATE	LABEL	6/30/2020	AC Calibration Date
THERMOSELECT	IQUANT	1	Thermo Select
FRAMEWORKVERSION	LABEL	7.8.2	Framework Version
INSTRUMENTVERSION	LABEL	4.40	Instrument Version
CURVE	TABLE	101
	Pt	T	Vfwd	Vrev	Vstep	Ifwd	Irev	Idif	Sig	Ach	IERange	Over	Temp
	#	s	V	V	V	A	A	A	V	V	#	bits	deg C
	0	0.01	-3.24853E-001	-3.74334E-001	-3.49593E-001	-3.40508E-009	-3.23482E-007	3.20077E-007	-3.75000E-001	3.62706E-004	7	..........a	-327.68
	1	0.02	-3.23421E-001	-3.72333E-001	-3.47877E-001	2.09057E-007	-2.80910E-007	4.89967E-007	-3.73000E-001	3.36039E-004	7	..........a	-327.68
	2	0.03	-3.21416E-001	-3.70351E-001	-3.45883E-001	2.29927E-007	-2.67374E-007	4.97301E-007	-3.71000E-001	3.67706E-004	7	..........a	-327.68
	3	0.04	-3.19416E-001	-3.68318E-001	-3.43867E-001	2.42728E-007	-2.61840E-007	5.04569E-007	-3.69000E-001	3.62706E-004	7	..........a	-327.68
	4	0.05	-3.17438E-001	-3.66316E-001	-3.41877E-001	2.48296E-007	-2.56940E-007	5.05236E-007	-3.67000E-001	3.42706E-004	7	..........a	-327.68
	5	0.06	-3.15428E-001	-3.64313E-001	-3.39870E-001	2.51563E-007	-2.55673E-007	5.07236E-007	-3.65000E-001	3.17706E-004	7	..........a	-327.68
	6	0.07	-3.13393E-001	-3.62364E-001	-3.37878E-001	2.55630E-007	-2.52939E-007	5.08569E-007	-3.63000E-001	3.72706E-004	7	..........a	-327.68
	7	0.08	-3.11414E-001	-3.60326E-001	-3.35870E-001	2.57464E-007	-2.48338E-007	5.05802E-007	-3.61000E-001	3.64373E-004	7	..........a	-327.68
	8	0.09	-3.09426E-001	-3.58306E-001	-3.33866E-001	2.59631E-007	-2.49839E-007	5.09469E-007	-3.59000E-001	3.61039E-004	7	..........a	-327.68
	9	0.1	-3.07398E-001	-3.56319E-001	-3.31858E-001	2.59797E-007	-2.47272E-007	5.07069E-007	-3.57000E-001	3.47706E-004	7	..........a	-327.68
	10	0.11	-3.05406E-001	-3.54346E-001	-3.29876E-001	2.59697E-007	-2.48905E-007	5.08603E-007	-3.55000E-001	3.54373E-004	7	..........a	-327.68
	11	0.12	-3.03433E-001	-3.52361E-001	-3.27897E-001	2.64931E-007	-2.47938E-007	5.12870E-007	-3.53000E-001	3.87706E-004	7	..........a	-327.68
	12	0.13	-3.01446E-001	-3.50324E-001	-3.25885E-001	2.63898E-007	-2.45271E-007	5.09169E-007	-3.51000E-001	3.21039E-004	7	..........a	-327.68
	13	0.14	-2.99418E-001	-3.48314E-001	-3.23866E-001	2.66498E-007	-2.49239E-007	5.15737E-007	-3.49000E-001	3.36039E-004	7	..........a	-327.68
	14	0.15	-2.97426E-001	-3.46339E-001	-3.21883E-001	2.70299E-007	-2.47572E-007	5.17871E-007	-3.47000E-001	3.62706E-004	7	..........a	-327.68
	15	0.16	-2.95453E-001	-3.44333E-001	-3.19893E-001	2.73299E-007	-2.50872E-007	5.24171E-007	-3.45000E-001	3.66039E-004	7	..........a	-327.68
	16	0.17	-2.93403E-001	-3.42288E-001	-3.17845E-001	2.75800E-007	-2.49339E-007	5.25138E-007	-3.43000E-001	3.64373E-004	7	..........a	-327.68
	17	0.18	-2.91351E-001	-3.40321E-001	-3.15836E-001	2.75933E-007	-2.50439E-007	5.26372E-007	-3.41000E-001	3.02706E-004	7	..........a	-327.68
	18	0.19	-2.89348E-001	-3.38358E-001	-3.13853E-001	2.78933E-007	-2.53572E-007	5.32506E-007	-3.39000E-001	3.34373E-004	7	..........a	-327.68
	19	0.2	-2.87416E-001	-3.36334E-001	-3.11875E-001	2.80100E-007	-2.52506E-007	5.32606E-007	-3.37000E-001	3.44373E-004	7	..........a	-327.68
	20	0.21	-2.85426E-001	-3.34278E-001	-3.09852E-001	2.82000E-007	-2.52639E-007	5.34640E-007	-3.35000E-001	3.54373E-004	7	..........a	-327.68
	21	0.22	-2.83388E-001	-3.32366E-001	-3.07877E-001	2.86134E-007	-2.55906E-007	5.42041E-007	-3.33000E-001	3.19373E-004	7	..........a	-327.68
	22	0.23	-2.81384E-001	-3.30366E-001	-3.05875E-001	2.87068E-007	-2.57973E-007	5.45041E-007	-3.31000E-001	3.36039E-004	7	..........a	-327.68
	23	0.24	-2.79418E-001	-3.28371E-001	-3.03894E-001	2.91668E-007	-2.57906E-007	5.49575E-007	-3.29000E-001	3.31039E-004	7	..........a	-327.68
	24	0.25	-2.77418E-001	-3.26334E-001	-3.01876E-001	2.95102E-007	-2.64441E-007	5.59543E-007	-3.27000E-001	3.24373E-004	7	..........a	-327.68
	25	0.26	-2.75426E-001	-3.24336E-001	-2.99881E-001	2.95869E-007	-2.67608E-007	5.63477E-007	-3.25000E-001	3.41039E-004	7	..........a	-327.68
	26	0.27	-2.73396E-001	-3.22359E-001	-2.97878E-001	3.00936E-007	-2.68508E-007	5.69444E-007	-3.23000E-001	3.77706E-004	7	..........a	-327.68
	27	0.28	-2.71424E-001	-3.20364E-001	-2.95894E-001	3.04404E-007	-2.70275E-007	5.74678E-007	-3.21000E-001	3.22706E-004	7	..........a	-327.68
	28	0.29	-2.69423E-001	-3.18269E-001	-2.93846E-001	3.08937E-007	-2.75142E-007	5.84080E-007	-3.19000E-001	3.56039E-004	7	..........a	-327.68
	29	0.3	-2.67363E-001	-3.16354E-001	-2.91858E-001	3.12238E-007	-2.78509E-007	5.90747E-007	-3.17000E-001	3.37706E-004	7	..........a	-327.68
	30	0.31	-2.65323E-001	-3.14376E-001	-2.89849E-001	3.18039E-007	-2.82343E-007	6.00382E-007	-3.15000E-001	3.27706E-004	7	..........a	-327.68
	31	0.32	-2.63426E-001	-3.12358E-001	-2.87892E-001	3.23539E-007	-2.88544E-007	6.12083E-007	-3.13000E-001	3.34373E-004	7	..........a	-327.68
	32	0.33	-2.61414E-001	-3.10298E-001	-2.85856E-001	3.26540E-007	-2.89877E-007	6.16417E-007	-3.11000E-001	3.54373E-004	7	..........a	-327.68
	33	0.34	-2.59361E-001	-3.08326E-001	-2.83843E-001	3.31841E-007	-2.95978E-007	6.27819E-007	-3.09000E-001	3.57706E-004	7	..........a	-327.68
	34	0.35	-2.57339E-001	-3.06396E-001	-2.81868E-001	3.34774E-007	-2.98412E-007	6.33186E-007	-3.07000E-001	3.32706E-004	7	..........a	-327.68
	35	0.36	-2.55424E-001	-3.04373E-001	-2.79898E-001	3.38442E-007	-3.02046E-007	6.40487E-007	-3.05000E-001	3.61039E-004	7	..........a	-327.68
	36	0.37	-2.53419E-001	-3.02361E-001	-2.77890E-001	3.45142E-007	-3.05046E-007	6.50189E-007	-3.03000E-001	3.51039E-004	7	..........a	-327.68
	37	0.38	-2.51404E-001	-3.00356E-001	-2.75880E-001	3.48176E-007	-3.07113E-007	6.55289E-007	-3.01000E-001	3.54373E-004	7	..........a	-327.68
	38	0.39	-2.49344E-001	-2.98378E-001	-2.73861E-001	3.51310E-007	-3.13981E-007	6.65291E-007	-2.99000E-001	3.29373E-004	7	..........a	-327.68
	39	0.4	-2.47393E-001	-2.96361E-001	-2.71877E-001	3.56577E-007	-3.15514E-007	6.72092E-007	-2.97000E-001	3.42706E-004	7	..........a	-327.68
	40	0.41	-2.45391E-001	-2.94344E-001	-2.69868E-001	3.60078E-007	-3.20982E-007	6.81060E-007	-2.95000E-001	3.36039E-004	7	..........a	-327.68
	41	0.42	-2.43396E-001	-2.92356E-001	-2.67876E-001	3.65045E-007	-3.23082E-007	6.88127E-007	-2.93000E-001	3.89373E-004	7	..........a	-327.68
	42	0.43	-2.41311E-001	-2.90398E-001	-2.65854E-001	3.67312E-007	-3.26749E-007	6.94061E-007	-2.91000E-001	3.59373E-004	7	..........a	-327.68
	43	0.44	-2.39409E-001	-2.88369E-001	-2.63889E-001	3.69846E-007	-3.28549E-007	6.98395E-007	-2.89000E-001	3.29373E-004	7	..........a	-327.68
	44	0.45	-2.37403E-001	-2.86279E-001	-2.61841E-001	3.70379E-007	-3.26983E-007	6.97362E-007	-2.87000E-001	3.64373E-004	7	..........a	-327.68
	45	0.46	-2.35346E-001	-2.84339E-001	-2.59843E-001	3.72746E-007	-3.31283E-007	7.04029E-007	-2.85000E-001	3.57706E-004	7	..........a	-327.68
	46	0.47	-2.33331E-001	-2.82401E-001	-2.57866E-001	3.76247E-007	-3.30016E-007	7.06263E-007	-2.83000E-001	3.49373E-004	7	..........a	-327.68
	47	0.48	-2.31409E-001	-2.80388E-001	-2.55898E-001	3.72213E-007	-3.28549E-007	7.00762E-007	-2.81000E-001	3.44373E-004	7	..........a	-327.68
	48	0.49	-2.29403E-001	-2.78311E-001	-2.53857E-001	3.72846E-007	-3.28416E-007	7.01262E-007	-2.79000E-001	3.46039E-004	7	..........a	-327.68
	49	0.5	-2.27379E-001	-2.76353E-001	-2.51866E-001	3.71146E-007	-3.27383E-007	6.98529E-007	-2.77000E-001	3.62706E-004	7	..........a	-327.68
	50	0.51	-2.25346E-001	-2.74381E-001	-2.49863E-001	3.70413E-007	-3.27449E-007	6.97862E-007	-2.75000E-001	3.36039E-004	7	..........a	-327.68
	51	0.52	-2.23383E-001	-2.72386E-001	-2.47884E-001	3.70379E-007	-3.25416E-007	6.95795E-007	-2.73000E-001	3.56039E-004	7	..........a	-327.68
	52	0.53	-2.21383E-001	-2.70348E-001	-2.45865E-001	3.67579E-007	-3.22015E-007	6.89594E-007	-2.71000E-001	3.51039E-004	7	..........a	-327.68
	53	0.54	-2.19369E-001	-2.68358E-001	-2.43863E-001	3.64545E-007	-3.19048E-007	6.83593E-007	-2.69000E-001	3.39373E-004	7	..........a	-327.68
	54	0.55	-2.17358E-001	-2.66399E-001	-2.41878E-001	3.61578E-007	-3.14314E-007	6.75892E-007	-2.67000E-001	3.57706E-004	7	..........a	-327.68
	55	0.56	-2.15354E-001	-2.64381E-001	-2.39868E-001	3.59544E-007	-3.13047E-007	6.72592E-007	-2.65000E-001	3.41039E-004	7	..........a	-327.68
	56	0.57	-2.13396E-001	-2.62311E-001	-2.37853E-001	3.60678E-007	-3.08580E-007	6.69258E-007	-2.63000E-001	3.46039E-004	7	..........a	-327.68
	57	0.58	-2.11341E-001	-2.60344E-001	-2.35843E-001	3.54977E-007	-3.04980E-007	6.59957E-007	-2.61000E-001	3.12706E-004	7	..........a	-327.68
	58	0.59	-2.09308E-001	-2.58358E-001	-2.33833E-001	3.55410E-007	-3.01346E-007	6.56756E-007	-2.59000E-001	3.56039E-004	7	..........a	-327.68
	59	0.6	-2.07346E-001	-2.56379E-001	-2.31863E-001	3.50010E-007	-2.96112E-007	6.46121E-007	-2.57000E-001	3.42706E-004	7	..........a	-327.68
	60	0.61	-2.05383E-001	-2.54329E-001	-2.29856E-001	3.44976E-007	-2.92278E-007	6.37253E-007	-2.55000E-001	3.16039E-004	7	..........a	-327.68
	61	0.62	-2.03348E-001	-2.52373E-001	-2.27860E-001	3.42009E-007	-2.87244E-007	6.29252E-007	-2.53000E-001	3.66039E-004	7	..........a	-327.68
	62	0.63	-2.01333E-001	-2.50409E-001	-2.25871E-001	3.38208E-007	-2.79543E-007	6.17751E-007	-2.51000E-001	3.57706E-004	7	..........a	-327.68
	63	0.64	-1.99379E-001	-2.48361E-001	-2.23870E-001	3.34674E-007	-2.76609E-007	6.11283E-007	-2.49000E-001	3.31039E-004	7	..........a	-327.68
	64	0.65	-1.97368E-001	-2.46378E-001	-2.21873E-001	3.31807E-007	-2.72275E-007	6.04082E-007	-2.47000E-001	3.62706E-004	7	..........a	-327.68
	65	0.66	-1.95373E-001	-2.44354E-001	-2.19863E-001	3.28640E-007	-2.68808E-007	5.97448E-007	-2.45000E-001	3.17706E-004	7	..........a	-327.68
	66	0.67	-1.93344E-001	-2.42388E-001	-2.17866E-001	3.29840E-007	-2.65841E-007	5.95681E-007	-2.43000E-001	3.79373E-004	7	..........a	-327.68
	67	0.68	-1.91389E-001	-2.40396E-001	-2.15893E-001	3.25573E-007	-2.60673E-007	5.86247E-007	-2.41000E-001	3.37706E-004	7	..........a	-327.68
	68	0.69	-1.89374E-001	-2.38331E-001	-2.13853E-001	3.22706E-007	-2.57773E-007	5.80479E-007	-2.39000E-001	3.51039E-004	7	..........a	-327.68
	69	0.7	-1.87334E-001	-2.36363E-001	-2.11848E-001	3.21473E-007	-2.52106E-007	5.73578E-007	-2.37000E-001	3.67706E-004	7	..........a	-327.68
	70	0.71	-1.85344E-001	-2.34391E-001	-2.09868E-001	3.19172E-007	-2.49605E-007	5.68778E-007	-2.35000E-001	3.32706E-004	7	..........a	-327.68
	71	0.72	-1.83351E-001	-2.32384E-001	-2.07868E-001	3.18739E-007	-2.45871E-007	5.64610E-007	-2.33000E-001	3.44373E-004	7	..........a	-327.68
	72	0.73	-1.81371E-001	-2.30334E-001	-2.05853E-001	3.12938E-007	-2.42338E-007	5.55276E-007	-2.31000E-001	3.44373E-004	7	..........a	-327.68
	73	0.74	-1.79304E-001	-2.28376E-001	-2.03840E-001	3.14605E-007	-2.38037E-007	5.52642E-007	-2.29000E-001	3.19373E-004	7	..........a	-327.68
	74	0.75	-1.77311E-001	-2.26393E-001	-2.01852E-001	3.12705E-007	-2.35070E-007	5.47775E-007	-2.27000E-001	3.51039E-004	7	..........a	-327.68
	75	0.76	-1.75374E-001	-2.24379E-001	-1.99877E-001	3.11671E-007	-2.34437E-007	5.46108E-007	-2.25000E-001	3.32706E-004	7	..........a	-327.68
	76	0.77	-1.73381E-001	-2.22373E-001	-1.97877E-001	3.10604E-007	-2.29903E-007	5.40507E-007	-2.23000E-001	3.19373E-004	7	..........a	-327.68
	77	0.78	-1.71328E-001	-2.20354E-001	-1.95841E-001	3.08104E-007	-2.25335E-007	5.33439E-007	-2.21000E-001	3.46039E-004	7	..........a	-327.68
	78	0.79	-1.69363E-001	-2.18359E-001	-1.93861E-001	3.08037E-007	-2.23335E-007	5.31372E-007	-2.19000E-001	3.06039E-004	7	..........a	-327.68
	79	0.8	-1.67361E-001	-2.16364E-001	-1.91863E-001	3.07337E-007	-2.21802E-007	5.29139E-007	-2.17000E-001	3.41039E-004	7	..........a	-327.68
	80	0.81	-1.65331E-001	-2.14304E-001	-1.89818E-001	3.06404E-007	-2.21668E-007	5.28072E-007	-2.15000E-001	3.44373E-004	7	..........a	-327.68
	81	0.82	-1.63304E-001	-2.12341E-001	-1.87823E-001	3.06170E-007	-2.21435E-007	5.27605E-007	-2.13000E-001	3.79373E-004	7	..........a	-327.68
	82	0.83	-1.61319E-001	-2.10366E-001	-1.85843E-001	3.05104E-007	-2.18868E-007	5.23971E-007	-2.11000E-001	3.52706E-004	7	..........a	-327.68
	83	0.84	-1.59346E-001	-2.08359E-001	-1.83853E-001	3.07204E-007	-2.18468E-007	5.25672E-007	-2.09000E-001	3.36039E-004	7	..........a	-327.68
	84	0.85	-1.57353E-001	-2.06321E-001	-1.81837E-001	3.06971E-007	-2.15701E-007	5.22671E-007	-2.07000E-001	3.72706E-004	7	..........a	-327.68
	85	0.86	-1.55284E-001	-2.04401E-001	-1.79843E-001	3.05570E-007	-2.13534E-007	5.19104E-007	-2.05000E-001	3.41039E-004	7	..........a	-327.68
	86	0.87	-1.53304E-001	-2.02383E-001	-1.77843E-001	3.05270E-007	-2.13434E-007	5.18704E-007	-2.03000E-001	3.61039E-004	7	..........a	-327.68
	87	0.88	-1.51339E-001	-2.00391E-001	-1.75865E-001	3.03603E-007	-2.09533E-007	5.13137E-007	-2.01000E-001	3.41039E-004	7	..........a	-327.68
	88	0.89	-1.49369E-001	-1.98361E-001	-1.73865E-001	3.02370E-007	-2.10200E-007	5.12570E-007	-1.99000E-001	3.72706E-004	7	..........a	-327.68
	89	0.9	-1.47331E-001	-1.96361E-001	-1.71846E-001	3.00670E-007	-2.08633E-007	5.09303E-007	-1.97000E-001	3.61039E-004	7	..........a	-327.68
	90	0.91	-1.45328E-001	-1.94383E-001	-1.69855E-001	2.99570E-007	-2.09000E-007	5.08569E-007	-1.95000E-001	3.51039E-004	7	..........a	-327.68
	91	0.92	-1.43366E-001	-1.92388E-001	-1.67877E-001	3.01403E-007	-2.10633E-007	5.12036E-007	-1.93000E-001	3.69373E-004	7	..........a	-327.68
	92	0.93	-1.41368E-001	-1.90264E-001	-1.65816E-001	2.99536E-007	-2.08366E-007	5.07903E-007	-1.91000E-001	3.14373E-004	7	..........a	-327.68
	93	0.94	-1.39249E-001	-1.88354E-001	-1.63802E-001	3.03837E-007	-2.09033E-007	5.12870E-007	-1.89000E-001	3.69373E-004	7	..........a	-327.68
	94	0.95	-1.37303E-001	-1.86389E-001	-1.61846E-001	3.03170E-007	-2.08933E-007	5.12103E-007	-1.87000E-001	3.42706E-004	7	..........a	-327.68
	95	0.96	-1.35353E-001	-1.84396E-001	-1.59874E-001	3.02703E-007	-2.07433E-007	5.10136E-007	-1.85000E-001	3.62706E-004	7	..........a	-327.68
	96	0.97	-1.33369E-001	-1.82306E-001	-1.57838E-001	3.03003E-007	-2.08933E-007	5.11936E-007	-1.83000E-001	3.49373E-004	7	..........a	-327.68
	97	0.98	-1.31309E-001	-1.80343E-001	-1.55826E-001	3.00936E-007	-2.07466E-007	5.08403E-007	-1.81000E-001	3.41039E-004	7	..........a	-327.68
	98	0.99	-1.29299E-001	-1.78409E-001	-1.53854E-001	3.04470E-007	-2.07300E-007	5.11770E-007	-1.79000E-001	3.51039E-004	7	..........a	-327.68
	99	1	-1.27374E-001	-1.76393E-001	-1.51883E-001	3.00303E-007	-2.07300E-007	5.07603E-007	-1.77000E-001	3.34373E-004	7	..........a	-327.68
	100	1.01	-1.25363E-001	-1.74356E-001	-1.49859E-001	3.01370E-007	-2.05866E-007	5.07236E-007	-1.75000E-001	3.36039E-004	7	..........a	-327.68
