EXPLAIN
TAG	SQUARE_WAVE
TITLE	LABEL	Square Wave Voltammetry	Test Identifier
DATE	LABEL	8/10/2020	Date
TIME	LABEL	17:34:39	Time
NOTES	NOTES	1	Notes...
	
PSTAT	PSTAT	REF600-24079	Potentiostat
VINIT	QUANT	-3.50000E-001	Initial E (V)
VFINAL	QUANT	-1.50000E-001	Final E (V)
STEPSIZE	QUANT	2.00000E+000	Step Size (mV)
TIMERRES	QUANT	3.33340E-005	&Timer Resolution
FREQUENCY	QUANT	2.50000E+002	Frequency (Hz)
PULSESIZE	QUANT	2.50000E+001	Pulse Size E (mV)
PULSEON	QUANT	4.00000E-003	Pulse &Time (s)
NOISEREJECT	TOGGLE	F	Noise Rejection
AREA	QUANT	2.00000E-002	Sample Area (cm^2)
IMODE	SELECTOR	1	I/E Range Mode
IRANGE	QUANT	1.00000E-002	Max Current (mA)
EQDELAY	IQUANT	10	Equil. Time (s)
IRCOMP	SELECTOR	0	IRComp
PFCOR	QUANT	5.00000E+001	PF Corr. (ohm)
CYCLES	IQUANT	101	C&ycles (#)
ELECTRODETYPE	SELECTOR	0	Electrode Type
STRIPPING	TOGGLE	F	Used for Stripping
POLARITY	TOGGLE	F	Signal Polarity
LINEFREQ	IQUANT	60	Line Frequency (Hz)
INTPERIOD	QUANT	3.3334E-005	Integration Period (s)
SEQUENCER	TOGGLE	TRUE	Run as Sequence
PSTATMODEL	IQUANT	4	Pstat Model
PSTATSECTION	LABEL	REF600-24079	Pstat Section
PSTATSERIALNO	LABEL	24079	Pstat Serial Number
CTRLMODE	IQUANT	1	Control Mode
ELECTROMETER	IQUANT	0	RE=0 or CS=1
IESTAB	IQUANT	2	I/E Stability
CASPEED	IQUANT	6	Control Amp Speed
CONVENTION	IQUANT	1	Current Convention
ICHRANGE	IQUANT	2	Ich Range
ICHRANGEMODE	TOGGLE	F	Ich Auto Range
ICHOFFSETENABLE	TOGGLE	F	Ich Offset Enable
ICHOFFSET	QUANT	0	Ich Offset (V)
ICHFILTER	IQUANT	2	Ich Filter
VCHRANGE	IQUANT	2	Vch Range
VCHRANGEMODE	TOGGLE	F	Vch Auto Range
VCHOFFSETENABLE	TOGGLE	F	Vch Offset Enable
VCHOFFSET	QUANT	0	Vch Offset (V)
VCHFILTER	IQUANT	1	Vch Filter
ACHRANGE	IQUANT	2	Ach Range
ACHOFFSETENABLE	TOGGLE	F	Ach Offset Enable
ACHOFFSET	QUANT	0	Ach Offset (V)
ACHFILTER	IQUANT	1	Ach Filter
IERANGELOWERLIMIT	IQUANT	1	I/E Range Lower Limit
IERANGEMODE	TOGGLE	F	I/E AutoRange
IERANGE	IQUANT	7	I/E Range
POSFEEDENABLE	TOGGLE	F	Positive Feedback IR Comp
POSFEEDRESISTANCE	QUANT	0	Positive Feedback Resistance (ohm)
ACHSELECT	IQUANT	0	Ach Select
SENSECABLEID	IQUANT	13	Sense Cable ID
PWRCABLEID	IQUANT	13	Power Cable ID
DCCALDATE	LABEL	6/30/2020	DC Calibration Date
ACCALDATE	LABEL	6/30/2020	AC Calibration Date
THERMOSELECT	IQUANT	1	Thermo Select
FRAMEWORKVERSION	LABEL	7.8.2	Framework Version
INSTRUMENTVERSION	LABEL	4.40	Instrument Version
CURVE	TABLE	101
	Pt	T	Vfwd	Vrev	Vstep	Ifwd	Irev	Idif	Sig	Ach	IERange	Over	Temp
	#	s	V	V	V	A	A	A	V	V	#	bits	deg C
	0	0.004	-3.26741E-001	-3.82024E-001	-3.54383E-001	-7.19478E-008	-7.00773E-006	6.93578E-006	-3.75000E-001	3.49373E-004	7	..........a	-327.68
	1	0.008	-3.19224E-001	-3.79895E-001	-3.49560E-001	7.74028E-006	-8.10879E-006	1.58491E-005	-3.73000E-001	3.74373E-004	7	..........a	-327.68
	2	0.012	-3.17345E-001	-3.77820E-001	-3.47583E-001	7.90714E-006	-8.07929E-006	1.59864E-005	-3.71000E-001	3.78539E-004	7	..........a	-327.68
	3	0.016	-3.15466E-001	-3.75803E-001	-3.45635E-001	7.91339E-006	-8.05554E-006	1.59689E-005	-3.69000E-001	3.86873E-004	7	..........a	-327.68
	4	0.02	-3.13358E-001	-3.73824E-001	-3.43591E-001	7.92522E-006	-8.03887E-006	1.59641E-005	-3.67000E-001	3.86873E-004	7	..........a	-327.68
	5	0.024	-3.11307E-001	-3.71832E-001	-3.41570E-001	7.92823E-006	-8.02520E-006	1.59534E-005	-3.65000E-001	3.99373E-004	7	..........a	-327.68
	6	0.028	-3.09362E-001	-3.69816E-001	-3.39589E-001	7.93573E-006	-8.01078E-006	1.59465E-005	-3.63000E-001	3.95206E-004	7	..........a	-327.68
	7	0.032	-3.07399E-001	-3.67808E-001	-3.37603E-001	7.93423E-006	-8.00461E-006	1.59388E-005	-3.61000E-001	3.74373E-004	7	..........a	-327.68
	8	0.036	-3.05466E-001	-3.65808E-001	-3.35637E-001	7.93681E-006	-7.99286E-006	1.59297E-005	-3.59000E-001	3.82706E-004	7	..........a	-327.68
	9	0.04	-3.03333E-001	-3.63791E-001	-3.33562E-001	7.93764E-006	-7.98044E-006	1.59181E-005	-3.57000E-001	3.70206E-004	7	..........a	-327.68
	10	0.044	-3.01374E-001	-3.61774E-001	-3.31574E-001	7.93556E-006	-7.97352E-006	1.59091E-005	-3.55000E-001	3.78539E-004	7	..........a	-327.68
	11	0.048	-2.99374E-001	-3.59774E-001	-3.29574E-001	7.93831E-006	-7.96369E-006	1.59020E-005	-3.53000E-001	4.16039E-004	7	..........a	-327.68
	12	0.052	-2.97357E-001	-3.57841E-001	-3.27599E-001	7.93556E-006	-7.95669E-006	1.58922E-005	-3.51000E-001	3.61873E-004	7	..........a	-327.68
	13	0.056	-2.95445E-001	-3.55874E-001	-3.25660E-001	7.93998E-006	-7.94335E-006	1.58833E-005	-3.49000E-001	3.78539E-004	7	..........a	-327.68
	14	0.06	-2.93303E-001	-3.53824E-001	-3.23564E-001	7.93631E-006	-7.93502E-006	1.58713E-005	-3.47000E-001	3.99373E-004	7	..........a	-327.68
	15	0.064	-2.91349E-001	-3.51862E-001	-3.21605E-001	7.93739E-006	-7.92985E-006	1.58672E-005	-3.45000E-001	3.78539E-004	7	..........a	-327.68
	16	0.068	-2.89320E-001	-3.49837E-001	-3.19578E-001	7.93831E-006	-7.92360E-006	1.58619E-005	-3.43000E-001	3.41039E-004	7	..........a	-327.68
	17	0.072	-2.87328E-001	-3.47841E-001	-3.17585E-001	7.93798E-006	-7.91552E-006	1.58535E-005	-3.41000E-001	3.74373E-004	7	..........a	-327.68
	18	0.076	-2.85345E-001	-3.45837E-001	-3.15591E-001	7.93873E-006	-7.91085E-006	1.58496E-005	-3.39000E-001	4.20206E-004	7	..........a	-327.68
	19	0.08	-2.83332E-001	-3.43824E-001	-3.13578E-001	7.93489E-006	-7.90318E-006	1.58381E-005	-3.37000E-001	3.86873E-004	7	..........a	-327.68
	20	0.084	-2.81357E-001	-3.41870E-001	-3.11614E-001	7.94106E-006	-7.89735E-006	1.58384E-005	-3.35000E-001	3.82706E-004	7	..........a	-327.68
	21	0.088	-2.79262E-001	-3.39870E-001	-3.09566E-001	7.93673E-006	-7.88818E-006	1.58249E-005	-3.33000E-001	3.66039E-004	7	..........a	-327.68
	22	0.092	-2.77316E-001	-3.37866E-001	-3.07591E-001	7.94348E-006	-7.88443E-006	1.58279E-005	-3.31000E-001	3.78539E-004	7	..........a	-327.68
	23	0.096	-2.75358E-001	-3.35916E-001	-3.05637E-001	7.94123E-006	-7.87901E-006	1.58202E-005	-3.29000E-001	3.99373E-004	7	..........a	-327.68
	24	0.1	-2.73333E-001	-3.33795E-001	-3.03564E-001	7.94256E-006	-7.87501E-006	1.58176E-005	-3.27000E-001	3.86873E-004	7	..........a	-327.68
	25	0.104	-2.71345E-001	-3.31832E-001	-3.01589E-001	7.94173E-006	-7.86651E-006	1.58082E-005	-3.25000E-001	3.61873E-004	7	..........a	-327.68
	26	0.108	-2.69387E-001	-3.29832E-001	-2.99610E-001	7.94164E-006	-7.86118E-006	1.58028E-005	-3.23000E-001	3.41039E-004	7	..........a	-327.68
	27	0.112	-2.67349E-001	-3.27866E-001	-2.97608E-001	7.94314E-006	-7.85901E-006	1.58022E-005	-3.21000E-001	3.95206E-004	7	..........a	-327.68
	28	0.116	-2.65391E-001	-3.25870E-001	-2.95630E-001	7.94273E-006	-7.85693E-006	1.57997E-005	-3.19000E-001	3.82706E-004	7	..........a	-327.68
	29	0.12	-2.63341E-001	-3.23870E-001	-2.93605E-001	7.95056E-006	-7.85351E-006	1.58041E-005	-3.17000E-001	3.70206E-004	7	..........a	-327.68
	30	0.124	-2.61299E-001	-3.21862E-001	-2.91580E-001	7.94189E-006	-7.84159E-006	1.57835E-005	-3.15000E-001	3.66039E-004	7	..........a	-327.68
	31	0.128	-2.59353E-001	-3.19803E-001	-2.89578E-001	7.94973E-006	-7.84176E-006	1.57915E-005	-3.13000E-001	3.53539E-004	7	..........a	-327.68
	32	0.132	-2.57278E-001	-3.17866E-001	-2.87572E-001	7.94856E-006	-7.83842E-006	1.57870E-005	-3.11000E-001	3.24373E-004	7	..........a	-327.68
	33	0.136	-2.55391E-001	-3.15841E-001	-2.85616E-001	7.95065E-006	-7.83526E-006	1.57859E-005	-3.09000E-001	3.49373E-004	7	..........a	-327.68
	34	0.14	-2.53383E-001	-3.13857E-001	-2.83620E-001	7.94981E-006	-7.83001E-006	1.57798E-005	-3.07000E-001	3.57706E-004	7	..........a	-327.68
	35	0.144	-2.51466E-001	-3.11820E-001	-2.81643E-001	7.95056E-006	-7.82400E-006	1.57746E-005	-3.05000E-001	3.45206E-004	7	..........a	-327.68
	36	0.148	-2.49378E-001	-3.09928E-001	-2.79653E-001	7.95281E-006	-7.82325E-006	1.57761E-005	-3.03000E-001	3.61873E-004	7	..........a	-327.68
	37	0.152	-2.47366E-001	-3.07803E-001	-2.77585E-001	7.95415E-006	-7.82225E-006	1.57764E-005	-3.01000E-001	3.57706E-004	7	..........a	-327.68
	38	0.156	-2.45387E-001	-3.05903E-001	-2.75645E-001	7.95956E-006	-7.81567E-006	1.57752E-005	-2.99000E-001	3.82706E-004	7	..........a	-327.68
	39	0.16	-2.43374E-001	-3.03874E-001	-2.73624E-001	7.95481E-006	-7.81117E-006	1.57660E-005	-2.97000E-001	3.95206E-004	7	..........a	-327.68
	40	0.164	-2.41345E-001	-3.01870E-001	-2.71608E-001	7.96081E-006	-7.80950E-006	1.57703E-005	-2.95000E-001	3.91039E-004	7	..........a	-327.68
	41	0.168	-2.39308E-001	-2.99928E-001	-2.69618E-001	7.96231E-006	-7.80800E-006	1.57703E-005	-2.93000E-001	3.45206E-004	7	..........a	-327.68
	42	0.172	-2.37358E-001	-2.97874E-001	-2.67616E-001	7.96415E-006	-7.79975E-006	1.57639E-005	-2.91000E-001	3.36873E-004	7	..........a	-327.68
	43	0.176	-2.35333E-001	-2.95874E-001	-2.65603E-001	7.96481E-006	-7.79883E-006	1.57636E-005	-2.89000E-001	3.32706E-004	7	..........a	-327.68
	44	0.18	-2.33324E-001	-2.93882E-001	-2.63603E-001	7.96206E-006	-7.79808E-006	1.57601E-005	-2.87000E-001	3.45206E-004	7	..........a	-327.68
	45	0.184	-2.31337E-001	-2.91874E-001	-2.61605E-001	7.96790E-006	-7.79758E-006	1.57655E-005	-2.85000E-001	3.24373E-004	7	..........a	-327.68
	46	0.188	-2.29349E-001	-2.89874E-001	-2.59612E-001	7.96573E-006	-7.79133E-006	1.57571E-005	-2.83000E-001	3.32706E-004	7	..........a	-327.68
	47	0.192	-2.27458E-001	-2.87853E-001	-2.57655E-001	7.97165E-006	-7.78742E-006	1.57591E-005	-2.81000E-001	3.74373E-004	7	..........a	-327.68
	48	0.196	-2.25362E-001	-2.85849E-001	-2.55605E-001	7.96956E-006	-7.78483E-006	1.57544E-005	-2.79000E-001	3.11873E-004	7	..........a	-327.68
	49	0.2	-2.23353E-001	-2.83841E-001	-2.53597E-001	7.97307E-006	-7.77891E-006	1.57520E-005	-2.77000E-001	3.53539E-004	7	..........a	-327.68
	50	0.204	-2.21374E-001	-2.81887E-001	-2.51630E-001	7.97573E-006	-7.77850E-006	1.57542E-005	-2.75000E-001	3.32706E-004	7	..........a	-327.68
	51	0.208	-2.19424E-001	-2.79837E-001	-2.49630E-001	7.97348E-006	-7.77416E-006	1.57476E-005	-2.73000E-001	3.66039E-004	7	..........a	-327.68
	52	0.212	-2.17403E-001	-2.77858E-001	-2.47630E-001	7.97373E-006	-7.77466E-006	1.57484E-005	-2.71000E-001	3.74373E-004	7	..........a	-327.68
	53	0.216	-2.15395E-001	-2.75858E-001	-2.45626E-001	7.97915E-006	-7.77166E-006	1.57508E-005	-2.69000E-001	3.32706E-004	7	..........a	-327.68
	54	0.22	-2.13366E-001	-2.73883E-001	-2.43624E-001	7.97740E-006	-7.76383E-006	1.57412E-005	-2.67000E-001	3.66039E-004	7	..........a	-327.68
	55	0.224	-2.11383E-001	-2.71812E-001	-2.41597E-001	7.97140E-006	-7.76058E-006	1.57320E-005	-2.65000E-001	3.36873E-004	7	..........a	-327.68
	56	0.228	-2.09383E-001	-2.69841E-001	-2.39612E-001	7.97948E-006	-7.75700E-006	1.57365E-005	-2.63000E-001	3.66039E-004	7	..........a	-327.68
	57	0.232	-2.07374E-001	-2.67820E-001	-2.37597E-001	7.97423E-006	-7.75241E-006	1.57266E-005	-2.61000E-001	3.86873E-004	7	..........a	-327.68
	58	0.236	-2.05324E-001	-2.65824E-001	-2.35574E-001	7.97565E-006	-7.74874E-006	1.57244E-005	-2.59000E-001	3.86873E-004	7	..........a	-327.68
	59	0.24	-2.03408E-001	-2.63787E-001	-2.33597E-001	7.97532E-006	-7.74374E-006	1.57191E-005	-2.57000E-001	3.57706E-004	7	..........a	-327.68
	60	0.244	-2.01391E-001	-2.61841E-001	-2.31616E-001	7.97640E-006	-7.74049E-006	1.57169E-005	-2.55000E-001	3.70206E-004	7	..........a	-327.68
	61	0.248	-1.99433E-001	-2.59874E-001	-2.29653E-001	7.97423E-006	-7.74183E-006	1.57161E-005	-2.53000E-001	3.49373E-004	7	..........a	-327.68
	62	0.252	-1.97408E-001	-2.57832E-001	-2.27620E-001	7.97373E-006	-7.73908E-006	1.57128E-005	-2.51000E-001	3.20206E-004	7	..........a	-327.68
	63	0.256	-1.95374E-001	-2.55908E-001	-2.25641E-001	7.97732E-006	-7.73374E-006	1.57111E-005	-2.49000E-001	3.53539E-004	7	..........a	-327.68
	64	0.26	-1.93391E-001	-2.53833E-001	-2.23612E-001	7.97148E-006	-7.72982E-006	1.57013E-005	-2.47000E-001	3.70206E-004	7	..........a	-327.68
	65	0.264	-1.91366E-001	-2.51887E-001	-2.21626E-001	7.97440E-006	-7.72432E-006	1.56987E-005	-2.45000E-001	4.16039E-004	7	..........a	-327.68
	66	0.268	-1.89353E-001	-2.49820E-001	-2.19587E-001	7.97473E-006	-7.72407E-006	1.56988E-005	-2.43000E-001	3.61873E-004	7	..........a	-327.68
	67	0.272	-1.87366E-001	-2.47866E-001	-2.17616E-001	7.97615E-006	-7.71757E-006	1.56937E-005	-2.41000E-001	3.45206E-004	7	..........a	-327.68
	68	0.276	-1.85349E-001	-2.45883E-001	-2.15616E-001	7.97307E-006	-7.71491E-006	1.56880E-005	-2.39000E-001	3.70206E-004	7	..........a	-327.68
	69	0.28	-1.83337E-001	-2.43883E-001	-2.13610E-001	7.97240E-006	-7.71291E-006	1.56853E-005	-2.37000E-001	3.74373E-004	7	..........a	-327.68
	70	0.284	-1.81333E-001	-2.41899E-001	-2.11616E-001	7.97323E-006	-7.71124E-006	1.56845E-005	-2.35000E-001	3.70206E-004	7	..........a	-327.68
	71	0.288	-1.79328E-001	-2.39870E-001	-2.09599E-001	7.97107E-006	-7.71082E-006	1.56819E-005	-2.33000E-001	3.66039E-004	7	..........a	-327.68
	72	0.292	-1.77349E-001	-2.37853E-001	-2.07601E-001	7.97982E-006	-7.70657E-006	1.56864E-005	-2.31000E-001	3.82706E-004	7	..........a	-327.68
	73	0.296	-1.75349E-001	-2.35849E-001	-2.05599E-001	7.97332E-006	-7.70215E-006	1.56755E-005	-2.29000E-001	3.99373E-004	7	..........a	-327.68
	74	0.3	-1.73358E-001	-2.33891E-001	-2.03624E-001	7.97473E-006	-7.69849E-006	1.56732E-005	-2.27000E-001	3.78539E-004	7	..........a	-327.68
	75	0.304	-1.71374E-001	-2.31824E-001	-2.01599E-001	7.97523E-006	-7.69915E-006	1.56744E-005	-2.25000E-001	3.70206E-004	7	..........a	-327.68
	76	0.308	-1.69366E-001	-2.29808E-001	-1.99587E-001	7.97715E-006	-7.69590E-006	1.56731E-005	-2.23000E-001	3.70206E-004	7	..........a	-327.68
	77	0.312	-1.67303E-001	-2.27828E-001	-1.97566E-001	7.97615E-006	-7.69574E-006	1.56719E-005	-2.21000E-001	3.82706E-004	7	..........a	-327.68
	78	0.316	-1.65328E-001	-2.25858E-001	-1.95593E-001	7.97423E-006	-7.69282E-006	1.56671E-005	-2.19000E-001	3.41039E-004	7	..........a	-327.68
	79	0.32	-1.63366E-001	-2.23820E-001	-1.93593E-001	7.97673E-006	-7.69182E-006	1.56686E-005	-2.17000E-001	3.45206E-004	7	..........a	-327.68
	80	0.324	-1.61366E-001	-2.21878E-001	-1.91622E-001	7.97465E-006	-7.69157E-006	1.56662E-005	-2.15000E-001	4.03539E-004	7	..........a	-327.68
	81	0.328	-1.59349E-001	-2.19866E-001	-1.89608E-001	7.98098E-006	-7.69107E-006	1.56721E-005	-2.13000E-001	3.95206E-004	7	..........a	-327.68
	82	0.332	-1.57374E-001	-2.17791E-001	-1.87583E-001	7.97748E-006	-7.68924E-006	1.56667E-005	-2.11000E-001	3.49373E-004	7	..........a	-327.68
	83	0.336	-1.55353E-001	-2.15799E-001	-1.85576E-001	7.98132E-006	-7.68324E-006	1.56646E-005	-2.09000E-001	3.78539E-004	7	..........a	-327.68
	84	0.34	-1.53320E-001	-2.13853E-001	-1.83587E-001	7.98140E-006	-7.68482E-006	1.56662E-005	-2.07000E-001	3.45206E-004	7	..........a	-327.68
	85	0.344	-1.51424E-001	-2.11862E-001	-1.81643E-001	7.98523E-006	-7.68540E-006	1.56706E-005	-2.05000E-001	4.16039E-004	7	..........a	-327.68
	86	0.348	-1.49308E-001	-2.09903E-001	-1.79605E-001	7.99057E-006	-7.68699E-006	1.56776E-005	-2.03000E-001	3.91039E-004	7	..........a	-327.68
	87	0.352	-1.47341E-001	-2.07849E-001	-1.77595E-001	7.98890E-006	-7.68824E-006	1.56771E-005	-2.01000E-001	3.53539E-004	7	..........a	-327.68
	88	0.356	-1.45383E-001	-2.05887E-001	-1.75635E-001	7.98973E-006	-7.68524E-006	1.56750E-005	-1.99000E-001	3.53539E-004	7	..........a	-327.68
	89	0.36	-1.43333E-001	-2.03883E-001	-1.73608E-001	7.98940E-006	-7.68482E-006	1.56742E-005	-1.97000E-001	3.36873E-004	7	..........a	-327.68
	90	0.364	-1.41383E-001	-2.01878E-001	-1.71630E-001	7.99590E-006	-7.68590E-006	1.56818E-005	-1.95000E-001	3.86873E-004	7	..........a	-327.68
	91	0.368	-1.39333E-001	-1.99858E-001	-1.69595E-001	7.99082E-006	-7.68240E-006	1.56732E-005	-1.93000E-001	3.61873E-004	7	..........a	-327.68
	92	0.372	-1.37374E-001	-1.97866E-001	-1.67620E-001	7.99457E-006	-7.68249E-006	1.56771E-005	-1.91000E-001	3.66039E-004	7	..........a	-327.68
	93	0.376	-1.35341E-001	-1.95920E-001	-1.65630E-001	8.00115E-006	-7.68790E-006	1.56891E-005	-1.89000E-001	3.61873E-004	7	..........a	-327.68
	94	0.38	-1.33333E-001	-1.93883E-001	-1.63608E-001	8.00157E-006	-7.68540E-006	1.56870E-005	-1.87000E-001	3.70206E-004	7	..........a	-327.68
	95	0.384	-1.31341E-001	-1.91883E-001	-1.61612E-001	8.00390E-006	-7.68599E-006	1.56899E-005	-1.85000E-001	3.49373E-004	7	..........a	-327.68
	96	0.388	-1.29349E-001	-1.89820E-001	-1.59585E-001	8.00465E-006	-7.68724E-006	1.56919E-005	-1.83000E-001	3.86873E-004	7	..........a	-327.68
	97	0.392	-1.27345E-001	-1.87862E-001	-1.57603E-001	8.01407E-006	-7.69357E-006	1.57076E-005	-1.81000E-001	3.49373E-004	7	..........a	-327.68
	98	0.396	-1.25316E-001	-1.85870E-001	-1.55593E-001	8.01265E-006	-7.69124E-006	1.57039E-005	-1.79000E-001	3.82706E-004	7	..........a	-327.68
	99	0.4	-1.23358E-001	-1.83833E-001	-1.53595E-001	8.01824E-006	-7.69007E-006	1.57083E-005	-1.77000E-001	3.57706E-004	7	..........a	-327.68
	100	0.404	-1.21408E-001	-1.81816E-001	-1.51612E-001	8.01615E-006	-7.69015E-006	1.57063E-005	-1.75000E-001	3.16039E-004	7	..........a	-327.68
