EXPLAIN
TAG	SQUARE_WAVE
TITLE	LABEL	Square Wave Voltammetry	Test Identifier
DATE	LABEL	8/10/2020	Date
TIME	LABEL	19:04:22	Time
NOTES	NOTES	1	Notes...
	
PSTAT	PSTAT	REF600-24079	Potentiostat
VINIT	QUANT	-3.50000E-001	Initial E (V)
VFINAL	QUANT	-1.50000E-001	Final E (V)
STEPSIZE	QUANT	2.00000E+000	Step Size (mV)
TIMERRES	QUANT	3.33340E-005	&Timer Resolution
FREQUENCY	QUANT	5.00000E+002	Frequency (Hz)
PULSESIZE	QUANT	2.50000E+001	Pulse Size E (mV)
PULSEON	QUANT	2.00000E-003	Pulse &Time (s)
NOISEREJECT	TOGGLE	F	Noise Rejection
AREA	QUANT	2.00000E-002	Sample Area (cm^2)
IMODE	SELECTOR	1	I/E Range Mode
IRANGE	QUANT	1.00000E-002	Max Current (mA)
EQDELAY	IQUANT	10	Equil. Time (s)
IRCOMP	SELECTOR	0	IRComp
PFCOR	QUANT	5.00000E+001	PF Corr. (ohm)
CYCLES	IQUANT	101	C&ycles (#)
ELECTRODETYPE	SELECTOR	0	Electrode Type
STRIPPING	TOGGLE	F	Used for Stripping
POLARITY	TOGGLE	F	Signal Polarity
LINEFREQ	IQUANT	60	Line Frequency (Hz)
INTPERIOD	QUANT	3.3334E-005	Integration Period (s)
SEQUENCER	TOGGLE	TRUE	Run as Sequence
PSTATMODEL	IQUANT	4	Pstat Model
PSTATSECTION	LABEL	REF600-24079	Pstat Section
PSTATSERIALNO	LABEL	24079	Pstat Serial Number
CTRLMODE	IQUANT	1	Control Mode
ELECTROMETER	IQUANT	0	RE=0 or CS=1
IESTAB	IQUANT	2	I/E Stability
CASPEED	IQUANT	6	Control Amp Speed
CONVENTION	IQUANT	1	Current Convention
ICHRANGE	IQUANT	2	Ich Range
ICHRANGEMODE	TOGGLE	F	Ich Auto Range
ICHOFFSETENABLE	TOGGLE	F	Ich Offset Enable
ICHOFFSET	QUANT	0	Ich Offset (V)
ICHFILTER	IQUANT	1	Ich Filter
VCHRANGE	IQUANT	2	Vch Range
VCHRANGEMODE	TOGGLE	F	Vch Auto Range
VCHOFFSETENABLE	TOGGLE	F	Vch Offset Enable
VCHOFFSET	QUANT	0	Vch Offset (V)
VCHFILTER	IQUANT	1	Vch Filter
ACHRANGE	IQUANT	2	Ach Range
ACHOFFSETENABLE	TOGGLE	F	Ach Offset Enable
ACHOFFSET	QUANT	0	Ach Offset (V)
ACHFILTER	IQUANT	1	Ach Filter
IERANGELOWERLIMIT	IQUANT	1	I/E Range Lower Limit
IERANGEMODE	TOGGLE	F	I/E AutoRange
IERANGE	IQUANT	7	I/E Range
POSFEEDENABLE	TOGGLE	F	Positive Feedback IR Comp
POSFEEDRESISTANCE	QUANT	0	Positive Feedback Resistance (ohm)
ACHSELECT	IQUANT	0	Ach Select
SENSECABLEID	IQUANT	13	Sense Cable ID
PWRCABLEID	IQUANT	13	Power Cable ID
DCCALDATE	LABEL	6/30/2020	DC Calibration Date
ACCALDATE	LABEL	6/30/2020	AC Calibration Date
THERMOSELECT	IQUANT	1	Thermo Select
FRAMEWORKVERSION	LABEL	7.8.2	Framework Version
INSTRUMENTVERSION	LABEL	4.40	Instrument Version
CURVE	TABLE	101
	Pt	T	Vfwd	Vrev	Vstep	Ifwd	Irev	Idif	Sig	Ach	IERange	Over	Temp
	#	s	V	V	V	A	A	A	V	V	#	bits	deg C
	0	0.002	-3.26833E-001	-3.64666E-001	-3.45749E-001	-8.17245E-008	-1.24099E-005	1.23282E-005	-3.75000E-001	3.66039E-004	7	..........a	-327.68
	1	0.004	-3.42741E-001	-3.60141E-001	-3.51441E-001	8.34409E-006	-7.42189E-006	1.57660E-005	-3.73000E-001	3.41039E-004	7	..........a	-327.68
	2	0.006	-3.37058E-001	-3.57674E-001	-3.47366E-001	8.26758E-006	-8.19883E-006	1.64664E-005	-3.71000E-001	3.32706E-004	7	..........a	-327.68
	3	0.008	-3.35483E-001	-3.55824E-001	-3.45653E-001	8.13056E-006	-8.08315E-006	1.62137E-005	-3.69000E-001	3.82706E-004	7	..........a	-327.68
	4	0.01	-3.33533E-001	-3.53824E-001	-3.43678E-001	8.20474E-006	-8.06415E-006	1.62689E-005	-3.67000E-001	3.41039E-004	7	..........a	-327.68
	5	0.012	-3.31491E-001	-3.51724E-001	-3.41608E-001	8.20707E-006	-8.05331E-006	1.62604E-005	-3.65000E-001	3.16039E-004	7	..........a	-327.68
	6	0.014	-3.29491E-001	-3.49824E-001	-3.39658E-001	8.22524E-006	-8.03881E-006	1.62640E-005	-3.63000E-001	3.41039E-004	7	..........a	-327.68
	7	0.016	-3.27474E-001	-3.47816E-001	-3.37645E-001	8.23291E-006	-8.02431E-006	1.62572E-005	-3.61000E-001	2.91039E-004	7	..........a	-327.68
	8	0.018	-3.25499E-001	-3.45791E-001	-3.35645E-001	8.24358E-006	-8.01547E-006	1.62590E-005	-3.59000E-001	3.16039E-004	7	..........a	-327.68
	9	0.02	-3.23532E-001	-3.43883E-001	-3.33708E-001	8.25391E-006	-8.01080E-006	1.62647E-005	-3.57000E-001	3.16039E-004	7	..........a	-327.68
	10	0.022	-3.21474E-001	-3.41766E-001	-3.31620E-001	8.25425E-006	-7.99930E-006	1.62535E-005	-3.55000E-001	3.99373E-004	7	..........a	-327.68
	11	0.024	-3.19441E-001	-3.39816E-001	-3.29628E-001	8.26341E-006	-7.99397E-006	1.62574E-005	-3.53000E-001	3.16039E-004	7	..........a	-327.68
	12	0.026	-3.17432E-001	-3.37749E-001	-3.27591E-001	8.27408E-006	-7.98063E-006	1.62547E-005	-3.51000E-001	3.49373E-004	7	..........a	-327.68
	13	0.028	-3.15474E-001	-3.35874E-001	-3.25674E-001	8.27091E-006	-7.97647E-006	1.62474E-005	-3.49000E-001	3.74373E-004	7	..........a	-327.68
	14	0.03	-3.13524E-001	-3.33799E-001	-3.23662E-001	8.28642E-006	-7.96897E-006	1.62554E-005	-3.47000E-001	3.74373E-004	7	..........a	-327.68
	15	0.032	-3.11491E-001	-3.31733E-001	-3.21612E-001	8.29158E-006	-7.96247E-006	1.62540E-005	-3.45000E-001	2.99373E-004	7	..........a	-327.68
	16	0.034	-3.09491E-001	-3.29741E-001	-3.19616E-001	8.29558E-006	-7.95963E-006	1.62552E-005	-3.43000E-001	3.49373E-004	7	..........a	-327.68
	17	0.036	-3.07474E-001	-3.27808E-001	-3.17641E-001	8.30075E-006	-7.95413E-006	1.62549E-005	-3.41000E-001	3.49373E-004	7	..........a	-327.68
	18	0.038	-3.05474E-001	-3.25841E-001	-3.15658E-001	8.29892E-006	-7.94613E-006	1.62450E-005	-3.39000E-001	3.32706E-004	7	..........a	-327.68
	19	0.04	-3.03483E-001	-3.23766E-001	-3.13624E-001	8.31142E-006	-7.94213E-006	1.62535E-005	-3.37000E-001	3.32706E-004	7	..........a	-327.68
	20	0.042	-3.01508E-001	-3.21849E-001	-3.11678E-001	8.31242E-006	-7.93529E-006	1.62477E-005	-3.35000E-001	3.41039E-004	7	..........a	-327.68
	21	0.044	-2.99491E-001	-3.19791E-001	-3.09641E-001	8.31942E-006	-7.92979E-006	1.62492E-005	-3.33000E-001	3.49373E-004	7	..........a	-327.68
	22	0.046	-2.97474E-001	-3.17774E-001	-3.07624E-001	8.32542E-006	-7.92663E-006	1.62520E-005	-3.31000E-001	3.32706E-004	7	..........a	-327.68
	23	0.048	-2.95583E-001	-3.15832E-001	-3.05708E-001	8.32492E-006	-7.92096E-006	1.62459E-005	-3.29000E-001	3.74373E-004	7	..........a	-327.68
	24	0.05	-2.93399E-001	-3.13824E-001	-3.03612E-001	8.33159E-006	-7.92279E-006	1.62544E-005	-3.27000E-001	3.82706E-004	7	..........a	-327.68
	25	0.052	-2.91508E-001	-3.11824E-001	-3.01666E-001	8.33642E-006	-7.91113E-006	1.62475E-005	-3.25000E-001	3.66039E-004	7	..........a	-327.68
	26	0.054	-2.89457E-001	-3.09866E-001	-2.99662E-001	8.33876E-006	-7.90729E-006	1.62460E-005	-3.23000E-001	2.82706E-004	7	..........a	-327.68
	27	0.056	-2.87457E-001	-3.07757E-001	-2.97607E-001	8.34359E-006	-7.90696E-006	1.62505E-005	-3.21000E-001	2.99373E-004	7	..........a	-327.68
	28	0.058	-2.85424E-001	-3.05799E-001	-2.95612E-001	8.34509E-006	-7.89779E-006	1.62429E-005	-3.19000E-001	3.57706E-004	7	..........a	-327.68
	29	0.06	-2.83441E-001	-3.03858E-001	-2.93649E-001	8.34826E-006	-7.89512E-006	1.62434E-005	-3.17000E-001	3.91039E-004	7	..........a	-327.68
	30	0.062	-2.81524E-001	-3.01832E-001	-2.91678E-001	8.35642E-006	-7.89212E-006	1.62485E-005	-3.15000E-001	3.16039E-004	7	..........a	-327.68
	31	0.064	-2.79474E-001	-2.99866E-001	-2.89670E-001	8.35392E-006	-7.88912E-006	1.62430E-005	-3.13000E-001	3.41039E-004	7	..........a	-327.68
	32	0.066	-2.77474E-001	-2.97933E-001	-2.87703E-001	8.36259E-006	-7.88062E-006	1.62432E-005	-3.11000E-001	3.49373E-004	7	..........a	-327.68
	33	0.068	-2.75491E-001	-2.95849E-001	-2.85670E-001	8.36476E-006	-7.87562E-006	1.62404E-005	-3.09000E-001	3.24373E-004	7	..........a	-327.68
	34	0.07	-2.73432E-001	-2.93874E-001	-2.83653E-001	8.36093E-006	-7.87679E-006	1.62377E-005	-3.07000E-001	3.24373E-004	7	..........a	-327.68
	35	0.072	-2.71408E-001	-2.91849E-001	-2.81628E-001	8.37093E-006	-7.87112E-006	1.62420E-005	-3.05000E-001	3.41039E-004	7	..........a	-327.68
	36	0.074	-2.69474E-001	-2.89716E-001	-2.79595E-001	8.36926E-006	-7.86528E-006	1.62345E-005	-3.03000E-001	3.74373E-004	7	..........a	-327.68
	37	0.076	-2.67499E-001	-2.87866E-001	-2.77683E-001	8.37593E-006	-7.86528E-006	1.62412E-005	-3.01000E-001	3.16039E-004	7	..........a	-327.68
	38	0.078	-2.65441E-001	-2.85791E-001	-2.75616E-001	8.37743E-006	-7.86045E-006	1.62379E-005	-2.99000E-001	3.32706E-004	7	..........a	-327.68
	39	0.08	-2.63416E-001	-2.83832E-001	-2.73624E-001	8.37860E-006	-7.85662E-006	1.62352E-005	-2.97000E-001	3.49373E-004	7	..........a	-327.68
	40	0.082	-2.61516E-001	-2.81824E-001	-2.71670E-001	8.38276E-006	-7.85178E-006	1.62345E-005	-2.95000E-001	3.57706E-004	7	..........a	-327.68
	41	0.084	-2.59391E-001	-2.79849E-001	-2.69620E-001	8.38760E-006	-7.84895E-006	1.62365E-005	-2.93000E-001	3.57706E-004	7	..........a	-327.68
	42	0.086	-2.57449E-001	-2.77782E-001	-2.67616E-001	8.39043E-006	-7.84945E-006	1.62399E-005	-2.91000E-001	3.49373E-004	7	..........a	-327.68
	43	0.088	-2.55433E-001	-2.75833E-001	-2.65633E-001	8.39260E-006	-7.84162E-006	1.62342E-005	-2.89000E-001	3.49373E-004	7	..........a	-327.68
	44	0.09	-2.53474E-001	-2.73824E-001	-2.63649E-001	8.39493E-006	-7.83528E-006	1.62302E-005	-2.87000E-001	3.57706E-004	7	..........a	-327.68
	45	0.092	-2.51458E-001	-2.71832E-001	-2.61645E-001	8.39510E-006	-7.83611E-006	1.62312E-005	-2.85000E-001	3.49373E-004	7	..........a	-327.68
	46	0.094	-2.49366E-001	-2.69874E-001	-2.59620E-001	8.40127E-006	-7.82928E-006	1.62305E-005	-2.83000E-001	3.99373E-004	7	..........a	-327.68
	47	0.096	-2.47458E-001	-2.67857E-001	-2.57657E-001	8.39943E-006	-7.82878E-006	1.62282E-005	-2.81000E-001	3.24373E-004	7	..........a	-327.68
	48	0.098	-2.45441E-001	-2.65833E-001	-2.55637E-001	8.40827E-006	-7.82611E-006	1.62344E-005	-2.79000E-001	3.16039E-004	7	..........a	-327.68
	49	0.1	-2.43408E-001	-2.63791E-001	-2.53599E-001	8.40477E-006	-7.82461E-006	1.62294E-005	-2.77000E-001	2.82706E-004	7	..........a	-327.68
	50	0.102	-2.41483E-001	-2.61833E-001	-2.51658E-001	8.41077E-006	-7.82128E-006	1.62320E-005	-2.75000E-001	3.07706E-004	7	..........a	-327.68
	51	0.104	-2.39383E-001	-2.59791E-001	-2.49587E-001	8.41127E-006	-7.81145E-006	1.62227E-005	-2.73000E-001	2.74373E-004	7	..........a	-327.68
	52	0.106	-2.37424E-001	-2.57958E-001	-2.47691E-001	8.41293E-006	-7.81311E-006	1.62260E-005	-2.71000E-001	3.32706E-004	7	..........a	-327.68
	53	0.108	-2.35374E-001	-2.55857E-001	-2.45616E-001	8.42127E-006	-7.80978E-006	1.62310E-005	-2.69000E-001	3.66039E-004	7	..........a	-327.68
	54	0.11	-2.33508E-001	-2.53908E-001	-2.43708E-001	8.41477E-006	-7.80411E-006	1.62189E-005	-2.67000E-001	3.07706E-004	7	..........a	-327.68
	55	0.112	-2.31441E-001	-2.51849E-001	-2.41645E-001	8.42260E-006	-7.80478E-006	1.62274E-005	-2.65000E-001	3.41039E-004	7	..........a	-327.68
	56	0.114	-2.29408E-001	-2.49858E-001	-2.39633E-001	8.42227E-006	-7.80278E-006	1.62250E-005	-2.63000E-001	2.74373E-004	7	..........a	-327.68
	57	0.116	-2.27433E-001	-2.47824E-001	-2.37628E-001	8.42560E-006	-7.79544E-006	1.62210E-005	-2.61000E-001	3.74373E-004	7	..........a	-327.68
	58	0.118	-2.25474E-001	-2.45866E-001	-2.35670E-001	8.43010E-006	-7.79544E-006	1.62255E-005	-2.59000E-001	3.07706E-004	7	..........a	-327.68
	59	0.12	-2.23441E-001	-2.43841E-001	-2.33641E-001	8.42960E-006	-7.79111E-006	1.62207E-005	-2.57000E-001	3.24373E-004	7	..........a	-327.68
	60	0.122	-2.21358E-001	-2.41891E-001	-2.31624E-001	8.43194E-006	-7.79478E-006	1.62267E-005	-2.55000E-001	3.66039E-004	7	..........a	-327.68
	61	0.124	-2.19366E-001	-2.39816E-001	-2.29591E-001	8.43344E-006	-7.78577E-006	1.62192E-005	-2.53000E-001	3.16039E-004	7	..........a	-327.68
	62	0.126	-2.17491E-001	-2.37833E-001	-2.27662E-001	8.43577E-006	-7.78227E-006	1.62180E-005	-2.51000E-001	3.99373E-004	7	..........a	-327.68
	63	0.128	-2.15383E-001	-2.35908E-001	-2.25645E-001	8.43494E-006	-7.78394E-006	1.62189E-005	-2.49000E-001	2.99373E-004	7	..........a	-327.68
	64	0.13	-2.13408E-001	-2.33849E-001	-2.23628E-001	8.44227E-006	-7.77494E-006	1.62172E-005	-2.47000E-001	2.82706E-004	7	..........a	-327.68
	65	0.132	-2.11408E-001	-2.31824E-001	-2.21616E-001	8.43910E-006	-7.77411E-006	1.62132E-005	-2.45000E-001	3.07706E-004	7	..........a	-327.68
	66	0.134	-2.09441E-001	-2.29858E-001	-2.19649E-001	8.44260E-006	-7.77427E-006	1.62169E-005	-2.43000E-001	3.41039E-004	7	..........a	-327.68
	67	0.136	-2.07408E-001	-2.27858E-001	-2.17633E-001	8.44427E-006	-7.77211E-006	1.62164E-005	-2.41000E-001	3.41039E-004	7	..........a	-327.68
	68	0.138	-2.05424E-001	-2.25858E-001	-2.15641E-001	8.44577E-006	-7.76994E-006	1.62157E-005	-2.39000E-001	2.99373E-004	7	..........a	-327.68
	69	0.14	-2.03408E-001	-2.23866E-001	-2.13637E-001	8.44977E-006	-7.76477E-006	1.62145E-005	-2.37000E-001	3.74373E-004	7	..........a	-327.68
	70	0.142	-2.01424E-001	-2.21899E-001	-2.11662E-001	8.45077E-006	-7.76561E-006	1.62164E-005	-2.35000E-001	3.16039E-004	7	..........a	-327.68
	71	0.144	-1.99424E-001	-2.19891E-001	-2.09658E-001	8.45060E-006	-7.76644E-006	1.62170E-005	-2.33000E-001	3.49373E-004	7	..........a	-327.68
	72	0.146	-1.97441E-001	-2.17866E-001	-2.07653E-001	8.45127E-006	-7.76277E-006	1.62140E-005	-2.31000E-001	3.66039E-004	7	..........a	-327.68
	73	0.148	-1.95441E-001	-2.15874E-001	-2.05658E-001	8.45577E-006	-7.75694E-006	1.62127E-005	-2.29000E-001	3.32706E-004	7	..........a	-327.68
	74	0.15	-1.93441E-001	-2.13858E-001	-2.03649E-001	8.45611E-006	-7.76310E-006	1.62192E-005	-2.27000E-001	2.66039E-004	7	..........a	-327.68
	75	0.152	-1.91424E-001	-2.11808E-001	-2.01616E-001	8.46044E-006	-7.75677E-006	1.62172E-005	-2.25000E-001	3.82706E-004	7	..........a	-327.68
	76	0.154	-1.89474E-001	-2.09858E-001	-1.99666E-001	8.46044E-006	-7.75177E-006	1.62122E-005	-2.23000E-001	3.82706E-004	7	..........a	-327.68
	77	0.156	-1.87424E-001	-2.07833E-001	-1.97628E-001	8.46077E-006	-7.75277E-006	1.62135E-005	-2.21000E-001	3.82706E-004	7	..........a	-327.68
	78	0.158	-1.85374E-001	-2.05874E-001	-1.95624E-001	8.46611E-006	-7.74910E-006	1.62152E-005	-2.19000E-001	3.32706E-004	7	..........a	-327.68
	79	0.16	-1.83408E-001	-2.03874E-001	-1.93641E-001	8.46327E-006	-7.74944E-006	1.62127E-005	-2.17000E-001	3.74373E-004	7	..........a	-327.68
	80	0.162	-1.81391E-001	-2.01874E-001	-1.91633E-001	8.46577E-006	-7.74277E-006	1.62085E-005	-2.15000E-001	3.99373E-004	7	..........a	-327.68
	81	0.164	-1.79408E-001	-1.99799E-001	-1.89603E-001	8.46661E-006	-7.74694E-006	1.62135E-005	-2.13000E-001	3.16039E-004	7	..........a	-327.68
	82	0.166	-1.77449E-001	-1.97874E-001	-1.87662E-001	8.46794E-006	-7.74360E-006	1.62115E-005	-2.11000E-001	3.57706E-004	7	..........a	-327.68
	83	0.168	-1.75399E-001	-1.95824E-001	-1.85612E-001	8.47094E-006	-7.73977E-006	1.62107E-005	-2.09000E-001	2.57706E-004	7	..........a	-327.68
	84	0.17	-1.73441E-001	-1.93858E-001	-1.83649E-001	8.47044E-006	-7.74227E-006	1.62127E-005	-2.07000E-001	3.07706E-004	7	..........a	-327.68
	85	0.172	-1.71399E-001	-1.91849E-001	-1.81624E-001	8.47094E-006	-7.73927E-006	1.62102E-005	-2.05000E-001	3.32706E-004	7	..........a	-327.68
	86	0.174	-1.69399E-001	-1.89874E-001	-1.79637E-001	8.47327E-006	-7.73577E-006	1.62090E-005	-2.03000E-001	3.74373E-004	7	..........a	-327.68
	87	0.176	-1.67458E-001	-1.87891E-001	-1.77674E-001	8.47461E-006	-7.73427E-006	1.62089E-005	-2.01000E-001	3.66039E-004	7	..........a	-327.68
	88	0.178	-1.65383E-001	-1.85833E-001	-1.75608E-001	8.47861E-006	-7.73610E-006	1.62147E-005	-1.99000E-001	3.49373E-004	7	..........a	-327.68
	89	0.18	-1.63408E-001	-1.83883E-001	-1.73645E-001	8.48094E-006	-7.73327E-006	1.62142E-005	-1.97000E-001	3.66039E-004	7	..........a	-327.68
	90	0.182	-1.61408E-001	-1.81816E-001	-1.71612E-001	8.48061E-006	-7.73143E-006	1.62120E-005	-1.95000E-001	3.16039E-004	7	..........a	-327.68
	91	0.184	-1.59358E-001	-1.79841E-001	-1.69599E-001	8.48328E-006	-7.73177E-006	1.62150E-005	-1.93000E-001	3.49373E-004	7	..........a	-327.68
	92	0.186	-1.57424E-001	-1.77816E-001	-1.67620E-001	8.48378E-006	-7.72910E-006	1.62129E-005	-1.91000E-001	2.66039E-004	7	..........a	-327.68
	93	0.188	-1.55391E-001	-1.75891E-001	-1.65641E-001	8.48561E-006	-7.72660E-006	1.62122E-005	-1.89000E-001	3.41039E-004	7	..........a	-327.68
	94	0.19	-1.53374E-001	-1.73858E-001	-1.63616E-001	8.49078E-006	-7.72327E-006	1.62140E-005	-1.87000E-001	2.99373E-004	7	..........a	-327.68
	95	0.192	-1.51391E-001	-1.71858E-001	-1.61624E-001	8.49111E-006	-7.72327E-006	1.62144E-005	-1.85000E-001	2.99373E-004	7	..........a	-327.68
	96	0.194	-1.49424E-001	-1.69858E-001	-1.59641E-001	8.48928E-006	-7.72577E-006	1.62150E-005	-1.83000E-001	3.24373E-004	7	..........a	-327.68
	97	0.196	-1.47416E-001	-1.67866E-001	-1.57641E-001	8.48994E-006	-7.72277E-006	1.62127E-005	-1.81000E-001	3.07706E-004	7	..........a	-327.68
	98	0.198	-1.45441E-001	-1.65866E-001	-1.55653E-001	8.49444E-006	-7.71343E-006	1.62079E-005	-1.79000E-001	3.74373E-004	7	..........a	-327.68
	99	0.2	-1.43408E-001	-1.63841E-001	-1.53624E-001	8.49311E-006	-7.71810E-006	1.62112E-005	-1.77000E-001	3.07706E-004	7	..........a	-327.68
	100	0.202	-1.41408E-001	-1.61833E-001	-1.51620E-001	8.49211E-006	-7.71410E-006	1.62062E-005	-1.75000E-001	3.16039E-004	7	..........a	-327.68
