EXPLAIN
TAG	SQUARE_WAVE
TITLE	LABEL	Square Wave Voltammetry	Test Identifier
DATE	LABEL	8/10/2020	Date
TIME	LABEL	14:41:47	Time
NOTES	NOTES	1	Notes...
	
PSTAT	PSTAT	REF600-24079	Potentiostat
VINIT	QUANT	-3.50000E-001	Initial E (V)
VFINAL	QUANT	-1.50000E-001	Final E (V)
STEPSIZE	QUANT	2.00000E+000	Step Size (mV)
TIMERRES	QUANT	3.33340E-005	&Timer Resolution
FREQUENCY	QUANT	1.00000E+002	Frequency (Hz)
PULSESIZE	QUANT	2.50000E+001	Pulse Size E (mV)
PULSEON	QUANT	1.00000E-002	Pulse &Time (s)
NOISEREJECT	TOGGLE	F	Noise Rejection
AREA	QUANT	2.00000E-002	Sample Area (cm^2)
IMODE	SELECTOR	1	I/E Range Mode
IRANGE	QUANT	1.00000E-002	Max Current (mA)
EQDELAY	IQUANT	10	Equil. Time (s)
IRCOMP	SELECTOR	0	IRComp
PFCOR	QUANT	5.00000E+001	PF Corr. (ohm)
CYCLES	IQUANT	101	C&ycles (#)
ELECTRODETYPE	SELECTOR	0	Electrode Type
STRIPPING	TOGGLE	F	Used for Stripping
POLARITY	TOGGLE	F	Signal Polarity
LINEFREQ	IQUANT	60	Line Frequency (Hz)
INTPERIOD	QUANT	3.3334E-005	Integration Period (s)
SEQUENCER	TOGGLE	TRUE	Run as Sequence
PSTATMODEL	IQUANT	4	Pstat Model
PSTATSECTION	LABEL	REF600-24079	Pstat Section
PSTATSERIALNO	LABEL	24079	Pstat Serial Number
CTRLMODE	IQUANT	1	Control Mode
ELECTROMETER	IQUANT	0	RE=0 or CS=1
IESTAB	IQUANT	2	I/E Stability
CASPEED	IQUANT	6	Control Amp Speed
CONVENTION	IQUANT	1	Current Convention
ICHRANGE	IQUANT	2	Ich Range
ICHRANGEMODE	TOGGLE	F	Ich Auto Range
ICHOFFSETENABLE	TOGGLE	F	Ich Offset Enable
ICHOFFSET	QUANT	0	Ich Offset (V)
ICHFILTER	IQUANT	2	Ich Filter
VCHRANGE	IQUANT	2	Vch Range
VCHRANGEMODE	TOGGLE	F	Vch Auto Range
VCHOFFSETENABLE	TOGGLE	F	Vch Offset Enable
VCHOFFSET	QUANT	0	Vch Offset (V)
VCHFILTER	IQUANT	2	Vch Filter
ACHRANGE	IQUANT	2	Ach Range
ACHOFFSETENABLE	TOGGLE	F	Ach Offset Enable
ACHOFFSET	QUANT	0	Ach Offset (V)
ACHFILTER	IQUANT	1	Ach Filter
IERANGELOWERLIMIT	IQUANT	1	I/E Range Lower Limit
IERANGEMODE	TOGGLE	F	I/E AutoRange
IERANGE	IQUANT	7	I/E Range
POSFEEDENABLE	TOGGLE	F	Positive Feedback IR Comp
POSFEEDRESISTANCE	QUANT	0	Positive Feedback Resistance (ohm)
ACHSELECT	IQUANT	0	Ach Select
SENSECABLEID	IQUANT	13	Sense Cable ID
PWRCABLEID	IQUANT	13	Power Cable ID
DCCALDATE	LABEL	6/30/2020	DC Calibration Date
ACCALDATE	LABEL	6/30/2020	AC Calibration Date
THERMOSELECT	IQUANT	1	Thermo Select
FRAMEWORKVERSION	LABEL	7.8.2	Framework Version
INSTRUMENTVERSION	LABEL	4.40	Instrument Version
CURVE	TABLE	101
	Pt	T	Vfwd	Vrev	Vstep	Ifwd	Irev	Idif	Sig	Ach	IERange	Over	Temp
	#	s	V	V	V	A	A	A	V	V	#	bits	deg C
	0	0.01	-3.25079E-001	-3.74604E-001	-3.49842E-001	-2.41412E-008	1.61717E-007	-1.85859E-007	-3.75000E-001	4.44373E-004	7	..........a	-327.68
	1	0.02	-3.23439E-001	-3.72589E-001	-3.48014E-001	-3.07347E-007	1.92588E-007	-4.99935E-007	-3.73000E-001	4.17706E-004	7	..........a	-327.68
	2	0.03	-3.21433E-001	-3.70699E-001	-3.46066E-001	-2.87977E-007	2.03290E-007	-4.91267E-007	-3.71000E-001	3.87706E-004	7	..........a	-327.68
	3	0.04	-3.19481E-001	-3.68626E-001	-3.44053E-001	-2.80376E-007	2.08357E-007	-4.88733E-007	-3.69000E-001	4.16039E-004	7	..........a	-327.68
	4	0.05	-3.17449E-001	-3.66629E-001	-3.42039E-001	-2.73375E-007	2.12058E-007	-4.85433E-007	-3.67000E-001	4.06039E-004	7	..........a	-327.68
	5	0.06	-3.15414E-001	-3.64539E-001	-3.39977E-001	-2.69508E-007	2.16525E-007	-4.86033E-007	-3.65000E-001	4.17706E-004	7	..........a	-327.68
	6	0.07	-3.13363E-001	-3.62636E-001	-3.37999E-001	-2.68741E-007	2.18092E-007	-4.86833E-007	-3.63000E-001	3.99373E-004	7	..........a	-327.68
	7	0.08	-3.11463E-001	-3.60559E-001	-3.36011E-001	-2.65341E-007	2.21392E-007	-4.86733E-007	-3.61000E-001	4.04373E-004	7	..........a	-327.68
	8	0.09	-3.09413E-001	-3.58619E-001	-3.34016E-001	-2.64174E-007	2.21859E-007	-4.86033E-007	-3.59000E-001	4.31039E-004	7	..........a	-327.68
	9	0.1	-3.07438E-001	-3.56539E-001	-3.31988E-001	-2.63074E-007	2.24626E-007	-4.87700E-007	-3.57000E-001	3.87706E-004	7	..........a	-327.68
	10	0.11	-3.05353E-001	-3.54638E-001	-3.29995E-001	-2.59940E-007	2.27093E-007	-4.87033E-007	-3.55000E-001	4.06039E-004	7	..........a	-327.68
	11	0.12	-3.03473E-001	-3.52624E-001	-3.28048E-001	-2.61140E-007	2.27126E-007	-4.88267E-007	-3.53000E-001	4.02706E-004	7	..........a	-327.68
	12	0.13	-3.01436E-001	-3.50596E-001	-3.26016E-001	-2.56840E-007	2.27193E-007	-4.84033E-007	-3.51000E-001	4.06039E-004	7	..........a	-327.68
	13	0.14	-2.99454E-001	-3.48589E-001	-3.24022E-001	-2.54873E-007	2.27160E-007	-4.82032E-007	-3.49000E-001	3.97706E-004	7	..........a	-327.68
	14	0.15	-2.97408E-001	-3.46623E-001	-3.22015E-001	-2.52706E-007	2.26560E-007	-4.79265E-007	-3.47000E-001	4.01039E-004	7	..........a	-327.68
	15	0.16	-2.95454E-001	-3.44613E-001	-3.20033E-001	-2.50405E-007	2.27960E-007	-4.78365E-007	-3.45000E-001	4.22706E-004	7	..........a	-327.68
	16	0.17	-2.93469E-001	-3.42633E-001	-3.18051E-001	-2.50739E-007	2.31094E-007	-4.81832E-007	-3.43000E-001	3.89373E-004	7	..........a	-327.68
	17	0.18	-2.91436E-001	-3.40533E-001	-3.15984E-001	-2.48105E-007	2.29893E-007	-4.77998E-007	-3.41000E-001	3.96039E-004	7	..........a	-327.68
	18	0.19	-2.89353E-001	-3.38659E-001	-3.14006E-001	-2.48772E-007	2.31327E-007	-4.80099E-007	-3.39000E-001	4.16039E-004	7	..........a	-327.68
	19	0.2	-2.87446E-001	-3.36543E-001	-3.11994E-001	-2.47572E-007	2.32527E-007	-4.80099E-007	-3.37000E-001	4.09373E-004	7	..........a	-327.68
	20	0.21	-2.85428E-001	-3.34616E-001	-3.10022E-001	-2.47272E-007	2.30160E-007	-4.77432E-007	-3.35000E-001	3.99373E-004	7	..........a	-327.68
	21	0.22	-2.83429E-001	-3.32538E-001	-3.07983E-001	-2.45505E-007	2.32694E-007	-4.78199E-007	-3.33000E-001	3.82706E-004	7	..........a	-327.68
	22	0.23	-2.81339E-001	-3.30609E-001	-3.05974E-001	-2.43038E-007	2.32594E-007	-4.75632E-007	-3.31000E-001	3.94373E-004	7	..........a	-327.68
	23	0.24	-2.79461E-001	-3.28603E-001	-3.04032E-001	-2.44605E-007	2.33127E-007	-4.77732E-007	-3.29000E-001	3.84373E-004	7	..........a	-327.68
	24	0.25	-2.77411E-001	-3.26591E-001	-3.02001E-001	-2.40971E-007	2.31694E-007	-4.72664E-007	-3.27000E-001	3.92706E-004	7	..........a	-327.68
	25	0.26	-2.75431E-001	-3.24549E-001	-2.99990E-001	-2.42371E-007	2.32560E-007	-4.74931E-007	-3.25000E-001	4.16039E-004	7	..........a	-327.68
	26	0.27	-2.73366E-001	-3.22589E-001	-2.97978E-001	-2.39171E-007	2.33294E-007	-4.72464E-007	-3.23000E-001	4.11039E-004	7	..........a	-327.68
	27	0.28	-2.71436E-001	-3.20564E-001	-2.96000E-001	-2.37737E-007	2.33994E-007	-4.71731E-007	-3.21000E-001	3.84373E-004	7	..........a	-327.68
	28	0.29	-2.69401E-001	-3.18496E-001	-2.93948E-001	-2.39071E-007	2.34327E-007	-4.73398E-007	-3.19000E-001	3.96039E-004	7	..........a	-327.68
	29	0.3	-2.67343E-001	-3.16506E-001	-2.91924E-001	-2.34703E-007	2.31060E-007	-4.65763E-007	-3.17000E-001	4.02706E-004	7	..........a	-327.68
	30	0.31	-2.65336E-001	-3.14616E-001	-2.89976E-001	-2.33336E-007	2.32427E-007	-4.65763E-007	-3.15000E-001	4.26039E-004	7	..........a	-327.68
	31	0.32	-2.63436E-001	-3.12579E-001	-2.88008E-001	-2.33170E-007	2.32227E-007	-4.65397E-007	-3.13000E-001	4.19373E-004	7	..........a	-327.68
	32	0.33	-2.61399E-001	-3.10619E-001	-2.86009E-001	-2.29803E-007	2.31627E-007	-4.61430E-007	-3.11000E-001	3.96039E-004	7	..........a	-327.68
	33	0.34	-2.59423E-001	-3.08529E-001	-2.83976E-001	-2.28869E-007	2.32760E-007	-4.61630E-007	-3.09000E-001	3.64373E-004	7	..........a	-327.68
	34	0.35	-2.57336E-001	-3.06638E-001	-2.81987E-001	-2.28169E-007	2.32594E-007	-4.60763E-007	-3.07000E-001	3.92706E-004	7	..........a	-327.68
	35	0.36	-2.55469E-001	-3.04619E-001	-2.80044E-001	-2.25435E-007	2.32094E-007	-4.57529E-007	-3.05000E-001	3.91039E-004	7	..........a	-327.68
	36	0.37	-2.53426E-001	-3.02648E-001	-2.78037E-001	-2.24369E-007	2.33794E-007	-4.58162E-007	-3.03000E-001	3.96039E-004	7	..........a	-327.68
	37	0.38	-2.51449E-001	-3.00576E-001	-2.76013E-001	-2.24535E-007	2.32594E-007	-4.57129E-007	-3.01000E-001	3.82706E-004	7	..........a	-327.68
	38	0.39	-2.49359E-001	-2.98629E-001	-2.73994E-001	-2.22768E-007	2.33060E-007	-4.55829E-007	-2.99000E-001	4.07706E-004	7	..........a	-327.68
	39	0.4	-2.47409E-001	-2.96639E-001	-2.72024E-001	-2.19568E-007	2.31460E-007	-4.51028E-007	-2.97000E-001	3.97706E-004	7	..........a	-327.68
	40	0.41	-2.45411E-001	-2.94604E-001	-2.70008E-001	-2.20168E-007	2.29327E-007	-4.49495E-007	-2.95000E-001	4.02706E-004	7	..........a	-327.68
	41	0.42	-2.43429E-001	-2.92516E-001	-2.67973E-001	-2.16501E-007	2.28693E-007	-4.45194E-007	-2.93000E-001	3.71039E-004	7	..........a	-327.68
	42	0.43	-2.41303E-001	-2.90694E-001	-2.65998E-001	-2.13434E-007	2.27693E-007	-4.41127E-007	-2.91000E-001	3.97706E-004	7	..........a	-327.68
	43	0.44	-2.39464E-001	-2.88633E-001	-2.64048E-001	-2.10500E-007	2.27593E-007	-4.38093E-007	-2.89000E-001	3.94373E-004	7	..........a	-327.68
	44	0.45	-2.37411E-001	-2.86619E-001	-2.62015E-001	-2.10067E-007	2.26426E-007	-4.36493E-007	-2.87000E-001	3.96039E-004	7	..........a	-327.68
	45	0.46	-2.35426E-001	-2.84556E-001	-2.59991E-001	-2.08933E-007	2.27693E-007	-4.36626E-007	-2.85000E-001	4.07706E-004	7	..........a	-327.68
	46	0.47	-2.33313E-001	-2.82643E-001	-2.57978E-001	-2.08833E-007	2.26893E-007	-4.35726E-007	-2.83000E-001	3.77706E-004	7	..........a	-327.68
	47	0.48	-2.31443E-001	-2.80601E-001	-2.56022E-001	-2.05833E-007	2.26926E-007	-4.32759E-007	-2.81000E-001	3.87706E-004	7	..........a	-327.68
	48	0.49	-2.29396E-001	-2.78649E-001	-2.54023E-001	-2.06399E-007	2.28326E-007	-4.34726E-007	-2.79000E-001	3.96039E-004	7	..........a	-327.68
	49	0.5	-2.27444E-001	-2.76576E-001	-2.52010E-001	-2.03332E-007	2.26060E-007	-4.29392E-007	-2.77000E-001	3.72706E-004	7	..........a	-327.68
	50	0.51	-2.25371E-001	-2.74633E-001	-2.50002E-001	-2.04566E-007	2.24393E-007	-4.28958E-007	-2.75000E-001	3.96039E-004	7	..........a	-327.68
	51	0.52	-2.23424E-001	-2.72601E-001	-2.48013E-001	-2.06166E-007	2.24359E-007	-4.30525E-007	-2.73000E-001	3.96039E-004	7	..........a	-327.68
	52	0.53	-2.21403E-001	-2.70646E-001	-2.46024E-001	-2.01665E-007	2.25893E-007	-4.27558E-007	-2.71000E-001	3.84373E-004	7	..........a	-327.68
	53	0.54	-2.19429E-001	-2.68538E-001	-2.43983E-001	-2.03132E-007	2.27226E-007	-4.30359E-007	-2.69000E-001	3.92706E-004	7	..........a	-327.68
	54	0.55	-2.17366E-001	-2.66691E-001	-2.42028E-001	-2.01799E-007	2.25826E-007	-4.27625E-007	-2.67000E-001	3.91039E-004	7	..........a	-327.68
	55	0.56	-2.15459E-001	-2.64579E-001	-2.40019E-001	-2.00132E-007	2.26226E-007	-4.26358E-007	-2.65000E-001	3.92706E-004	7	..........a	-327.68
	56	0.57	-2.13436E-001	-2.62573E-001	-2.38004E-001	-2.00165E-007	2.25926E-007	-4.26091E-007	-2.63000E-001	4.02706E-004	7	..........a	-327.68
	57	0.58	-2.11409E-001	-2.60526E-001	-2.35968E-001	-1.98732E-007	2.27026E-007	-4.25758E-007	-2.61000E-001	4.06039E-004	7	..........a	-327.68
	58	0.59	-2.09336E-001	-2.58616E-001	-2.33976E-001	-1.98598E-007	2.26160E-007	-4.24758E-007	-2.59000E-001	3.72706E-004	7	..........a	-327.68
	59	0.6	-2.07443E-001	-2.56576E-001	-2.32009E-001	-1.98032E-007	2.27326E-007	-4.25358E-007	-2.57000E-001	3.86039E-004	7	..........a	-327.68
	60	0.61	-2.05403E-001	-2.54649E-001	-2.30026E-001	-1.97798E-007	2.27426E-007	-4.25225E-007	-2.55000E-001	3.84373E-004	7	..........a	-327.68
	61	0.62	-2.03456E-001	-2.52559E-001	-2.28008E-001	-1.98232E-007	2.26993E-007	-4.25225E-007	-2.53000E-001	4.04373E-004	7	..........a	-327.68
	62	0.63	-2.01359E-001	-2.50613E-001	-2.25986E-001	-1.98532E-007	2.27126E-007	-4.25658E-007	-2.51000E-001	3.91039E-004	7	..........a	-327.68
	63	0.64	-1.99446E-001	-2.48616E-001	-2.24031E-001	-1.98998E-007	2.28527E-007	-4.27525E-007	-2.49000E-001	3.96039E-004	7	..........a	-327.68
	64	0.65	-1.97414E-001	-2.46611E-001	-2.22013E-001	-2.01465E-007	2.29193E-007	-4.30659E-007	-2.47000E-001	3.82706E-004	7	..........a	-327.68
	65	0.66	-1.95446E-001	-2.44579E-001	-2.20013E-001	-1.98165E-007	2.29993E-007	-4.28158E-007	-2.45000E-001	3.77706E-004	7	..........a	-327.68
	66	0.67	-1.93416E-001	-2.42714E-001	-2.18065E-001	-2.02132E-007	2.29893E-007	-4.32026E-007	-2.43000E-001	3.82706E-004	7	..........a	-327.68
	67	0.68	-1.91481E-001	-2.40608E-001	-2.16044E-001	-1.99932E-007	2.32627E-007	-4.32559E-007	-2.41000E-001	3.77706E-004	7	..........a	-327.68
	68	0.69	-1.89456E-001	-2.38603E-001	-2.14029E-001	-2.00965E-007	2.34194E-007	-4.35159E-007	-2.39000E-001	3.74373E-004	7	..........a	-327.68
	69	0.7	-1.87424E-001	-2.36533E-001	-2.11978E-001	-1.99065E-007	2.31760E-007	-4.30825E-007	-2.37000E-001	3.57706E-004	7	..........a	-327.68
	70	0.71	-1.85343E-001	-2.34621E-001	-2.09982E-001	-1.97898E-007	2.33761E-007	-4.31659E-007	-2.35000E-001	3.74373E-004	7	..........a	-327.68
	71	0.72	-1.83453E-001	-2.32603E-001	-2.08028E-001	-1.98265E-007	2.34661E-007	-4.32926E-007	-2.33000E-001	3.96039E-004	7	..........a	-327.68
	72	0.73	-1.81438E-001	-2.30619E-001	-2.06028E-001	-1.98165E-007	2.36828E-007	-4.34993E-007	-2.31000E-001	4.12706E-004	7	..........a	-327.68
	73	0.74	-1.79448E-001	-2.28516E-001	-2.03982E-001	-2.02032E-007	2.40128E-007	-4.42160E-007	-2.29000E-001	4.12706E-004	7	..........a	-327.68
	74	0.75	-1.77329E-001	-2.26568E-001	-2.01948E-001	-2.01332E-007	2.37861E-007	-4.39193E-007	-2.27000E-001	3.86039E-004	7	..........a	-327.68
	75	0.76	-1.75459E-001	-2.24596E-001	-2.00028E-001	-2.01232E-007	2.42862E-007	-4.44094E-007	-2.25000E-001	3.86039E-004	7	..........a	-327.68
	76	0.77	-1.73426E-001	-2.22626E-001	-1.98026E-001	-2.02999E-007	2.40028E-007	-4.43027E-007	-2.23000E-001	3.67706E-004	7	..........a	-327.68
	77	0.78	-1.71458E-001	-2.20588E-001	-1.96023E-001	-2.02566E-007	2.42695E-007	-4.45261E-007	-2.21000E-001	3.84373E-004	7	..........a	-327.68
	78	0.79	-1.69363E-001	-2.18586E-001	-1.93974E-001	-2.03766E-007	2.44595E-007	-4.48361E-007	-2.19000E-001	3.87706E-004	7	..........a	-327.68
	79	0.8	-1.67441E-001	-2.16591E-001	-1.92016E-001	-2.02366E-007	2.42928E-007	-4.45294E-007	-2.17000E-001	3.57706E-004	7	..........a	-327.68
	80	0.81	-1.65474E-001	-2.14583E-001	-1.90028E-001	-2.01465E-007	2.44095E-007	-4.45561E-007	-2.15000E-001	3.82706E-004	7	..........a	-327.68
	81	0.82	-1.63431E-001	-2.12541E-001	-1.87986E-001	-2.02666E-007	2.45129E-007	-4.47794E-007	-2.13000E-001	3.92706E-004	7	..........a	-327.68
	82	0.83	-1.61388E-001	-2.10619E-001	-1.86003E-001	-2.01232E-007	2.46262E-007	-4.47494E-007	-2.11000E-001	3.97706E-004	7	..........a	-327.68
	83	0.84	-1.59456E-001	-2.08563E-001	-1.84009E-001	-2.04266E-007	2.49929E-007	-4.54195E-007	-2.09000E-001	3.81039E-004	7	..........a	-327.68
	84	0.85	-1.57433E-001	-2.06618E-001	-1.82025E-001	-2.02866E-007	2.49129E-007	-4.51995E-007	-2.07000E-001	3.92706E-004	7	..........a	-327.68
	85	0.86	-1.55436E-001	-2.04554E-001	-1.79995E-001	-2.01999E-007	2.50029E-007	-4.52028E-007	-2.05000E-001	4.09373E-004	7	..........a	-327.68
	86	0.87	-1.53359E-001	-2.02621E-001	-1.77990E-001	-2.02566E-007	2.49296E-007	-4.51862E-007	-2.03000E-001	3.77706E-004	7	..........a	-327.68
	87	0.88	-1.51463E-001	-2.00629E-001	-1.76046E-001	-2.02799E-007	2.50029E-007	-4.52828E-007	-2.01000E-001	3.79373E-004	7	..........a	-327.68
	88	0.89	-1.49456E-001	-1.98656E-001	-1.74056E-001	-2.03832E-007	2.50963E-007	-4.54795E-007	-1.99000E-001	3.92706E-004	7	..........a	-327.68
	89	0.9	-1.47458E-001	-1.96573E-001	-1.72015E-001	-2.03132E-007	2.52096E-007	-4.55229E-007	-1.97000E-001	4.01039E-004	7	..........a	-327.68
	90	0.91	-1.45359E-001	-1.94603E-001	-1.69981E-001	-2.01832E-007	2.56164E-007	-4.57996E-007	-1.95000E-001	3.99373E-004	7	..........a	-327.68
	91	0.92	-1.43459E-001	-1.92596E-001	-1.68028E-001	-2.02532E-007	2.54697E-007	-4.57229E-007	-1.93000E-001	4.07706E-004	7	..........a	-327.68
	92	0.93	-1.41436E-001	-1.90529E-001	-1.65983E-001	-2.04733E-007	2.55964E-007	-4.60696E-007	-1.91000E-001	3.96039E-004	7	..........a	-327.68
	93	0.94	-1.39433E-001	-1.88506E-001	-1.63969E-001	-2.03866E-007	2.55330E-007	-4.59196E-007	-1.89000E-001	3.82706E-004	7	..........a	-327.68
	94	0.95	-1.37359E-001	-1.86619E-001	-1.61989E-001	-2.04299E-007	2.57397E-007	-4.61696E-007	-1.87000E-001	3.96039E-004	7	..........a	-327.68
	95	0.96	-1.35463E-001	-1.84536E-001	-1.59999E-001	-2.02432E-007	2.58597E-007	-4.61029E-007	-1.85000E-001	3.82706E-004	7	..........a	-327.68
	96	0.97	-1.33429E-001	-1.82596E-001	-1.58013E-001	-2.01732E-007	2.56197E-007	-4.57929E-007	-1.83000E-001	3.79373E-004	7	..........a	-327.68
	97	0.98	-1.31433E-001	-1.80501E-001	-1.55967E-001	-2.00899E-007	2.55464E-007	-4.56362E-007	-1.81000E-001	3.69373E-004	7	..........a	-327.68
	98	0.99	-1.29349E-001	-1.78639E-001	-1.53994E-001	-2.00432E-007	2.58331E-007	-4.58763E-007	-1.79000E-001	4.06039E-004	7	..........a	-327.68
	99	1	-1.27476E-001	-1.76551E-001	-1.52013E-001	-2.02332E-007	2.56597E-007	-4.58929E-007	-1.77000E-001	3.97706E-004	7	..........a	-327.68
	100	1.01	-1.25426E-001	-1.74643E-001	-1.50034E-001	-2.02032E-007	2.60364E-007	-4.62396E-007	-1.75000E-001	3.89373E-004	7	..........a	-327.68
