EXPLAIN
TAG	SQUARE_WAVE
TITLE	LABEL	Square Wave Voltammetry	Test Identifier
DATE	LABEL	8/10/2020	Date
TIME	LABEL	17:33:54	Time
NOTES	NOTES	1	Notes...
	
PSTAT	PSTAT	REF600-24079	Potentiostat
VINIT	QUANT	-3.50000E-001	Initial E (V)
VFINAL	QUANT	-1.50000E-001	Final E (V)
STEPSIZE	QUANT	2.00000E+000	Step Size (mV)
TIMERRES	QUANT	3.33340E-005	&Timer Resolution
FREQUENCY	QUANT	5.00000E+001	Frequency (Hz)
PULSESIZE	QUANT	2.50000E+001	Pulse Size E (mV)
PULSEON	QUANT	2.00000E-002	Pulse &Time (s)
NOISEREJECT	TOGGLE	F	Noise Rejection
AREA	QUANT	2.00000E-002	Sample Area (cm^2)
IMODE	SELECTOR	1	I/E Range Mode
IRANGE	QUANT	1.00000E-003	Max Current (mA)
EQDELAY	IQUANT	10	Equil. Time (s)
IRCOMP	SELECTOR	0	IRComp
PFCOR	QUANT	5.00000E+001	PF Corr. (ohm)
CYCLES	IQUANT	101	C&ycles (#)
ELECTRODETYPE	SELECTOR	0	Electrode Type
STRIPPING	TOGGLE	F	Used for Stripping
POLARITY	TOGGLE	F	Signal Polarity
LINEFREQ	IQUANT	60	Line Frequency (Hz)
INTPERIOD	QUANT	3.3334E-005	Integration Period (s)
SEQUENCER	TOGGLE	TRUE	Run as Sequence
PSTATMODEL	IQUANT	4	Pstat Model
PSTATSECTION	LABEL	REF600-24079	Pstat Section
PSTATSERIALNO	LABEL	24079	Pstat Serial Number
CTRLMODE	IQUANT	1	Control Mode
ELECTROMETER	IQUANT	0	RE=0 or CS=1
IESTAB	IQUANT	2	I/E Stability
CASPEED	IQUANT	6	Control Amp Speed
CONVENTION	IQUANT	1	Current Convention
ICHRANGE	IQUANT	2	Ich Range
ICHRANGEMODE	TOGGLE	F	Ich Auto Range
ICHOFFSETENABLE	TOGGLE	F	Ich Offset Enable
ICHOFFSET	QUANT	0	Ich Offset (V)
ICHFILTER	IQUANT	2	Ich Filter
VCHRANGE	IQUANT	2	Vch Range
VCHRANGEMODE	TOGGLE	F	Vch Auto Range
VCHOFFSETENABLE	TOGGLE	F	Vch Offset Enable
VCHOFFSET	QUANT	0	Vch Offset (V)
VCHFILTER	IQUANT	2	Vch Filter
ACHRANGE	IQUANT	2	Ach Range
ACHOFFSETENABLE	TOGGLE	F	Ach Offset Enable
ACHOFFSET	QUANT	0	Ach Offset (V)
ACHFILTER	IQUANT	1	Ach Filter
IERANGELOWERLIMIT	IQUANT	1	I/E Range Lower Limit
IERANGEMODE	TOGGLE	F	I/E AutoRange
IERANGE	IQUANT	6	I/E Range
POSFEEDENABLE	TOGGLE	F	Positive Feedback IR Comp
POSFEEDRESISTANCE	QUANT	0	Positive Feedback Resistance (ohm)
ACHSELECT	IQUANT	0	Ach Select
SENSECABLEID	IQUANT	13	Sense Cable ID
PWRCABLEID	IQUANT	13	Power Cable ID
DCCALDATE	LABEL	6/30/2020	DC Calibration Date
ACCALDATE	LABEL	6/30/2020	AC Calibration Date
THERMOSELECT	IQUANT	1	Thermo Select
FRAMEWORKVERSION	LABEL	7.8.2	Framework Version
INSTRUMENTVERSION	LABEL	4.40	Instrument Version
CURVE	TABLE	101
	Pt	T	Vfwd	Vrev	Vstep	Ifwd	Irev	Idif	Sig	Ach	IERange	Over	Temp
	#	s	V	V	V	A	A	A	V	V	#	bits	deg C
	0	0.02	-3.24944E-001	-3.75810E-001	-3.50377E-001	-1.30521E-007	8.60915E-007	-9.91436E-007	-3.75000E-001	3.92706E-004	6	..........a	-327.68
	1	0.04	-3.22819E-001	-3.73230E-001	-3.48024E-001	-1.28780E-006	8.57320E-007	-2.14512E-006	-3.73000E-001	3.93539E-004	6	..........a	-327.68
	2	0.06	-3.20788E-001	-3.71207E-001	-3.45998E-001	-1.26483E-006	8.68838E-007	-2.13366E-006	-3.71000E-001	3.85206E-004	6	..........a	-327.68
	3	0.08	-3.18765E-001	-3.69186E-001	-3.43976E-001	-1.25805E-006	8.76542E-007	-2.13459E-006	-3.69000E-001	3.83539E-004	6	..........a	-327.68
	4	0.1	-3.16749E-001	-3.67201E-001	-3.41975E-001	-1.25310E-006	8.82553E-007	-2.13565E-006	-3.67000E-001	3.82706E-004	6	..........a	-327.68
	5	0.12	-3.14775E-001	-3.65191E-001	-3.39983E-001	-1.24912E-006	8.89160E-007	-2.13828E-006	-3.65000E-001	3.83539E-004	6	..........a	-327.68
	6	0.14	-3.12762E-001	-3.63170E-001	-3.37966E-001	-1.24574E-006	8.92996E-007	-2.13873E-006	-3.63000E-001	3.67706E-004	6	..........a	-327.68
	7	0.16	-3.10776E-001	-3.61174E-001	-3.35975E-001	-1.24081E-006	8.97523E-007	-2.13834E-006	-3.61000E-001	3.94373E-004	6	..........a	-327.68
	8	0.18	-3.08778E-001	-3.59177E-001	-3.33978E-001	-1.23649E-006	9.02180E-007	-2.13867E-006	-3.59000E-001	3.66039E-004	6	..........a	-327.68
	9	0.2	-3.06796E-001	-3.57161E-001	-3.31978E-001	-1.23449E-006	9.07576E-007	-2.14206E-006	-3.57000E-001	3.96039E-004	6	..........a	-327.68
	10	0.22	-3.04789E-001	-3.55175E-001	-3.29982E-001	-1.23193E-006	9.12518E-007	-2.14444E-006	-3.55000E-001	3.89373E-004	6	..........a	-327.68
	11	0.24	-3.02825E-001	-3.53167E-001	-3.27996E-001	-1.22830E-006	9.15544E-007	-2.14384E-006	-3.53000E-001	3.85206E-004	6	..........a	-327.68
	12	0.26	-3.00831E-001	-3.51172E-001	-3.26002E-001	-1.22378E-006	9.18969E-007	-2.14275E-006	-3.51000E-001	3.73539E-004	6	..........a	-327.68
	13	0.28	-2.98841E-001	-3.49141E-001	-3.23991E-001	-1.22134E-006	9.22611E-007	-2.14395E-006	-3.49000E-001	3.79373E-004	6	..........a	-327.68
	14	0.3	-2.96819E-001	-3.47141E-001	-3.21980E-001	-1.21861E-006	9.27290E-007	-2.14590E-006	-3.47000E-001	3.70206E-004	6	..........a	-327.68
	15	0.32	-2.94805E-001	-3.45135E-001	-3.19970E-001	-1.21639E-006	9.31027E-007	-2.14741E-006	-3.45000E-001	3.77706E-004	6	..........a	-327.68
	16	0.34	-2.92809E-001	-3.43100E-001	-3.17954E-001	-1.21362E-006	9.33678E-007	-2.14730E-006	-3.43000E-001	3.78539E-004	6	..........a	-327.68
	17	0.36	-2.90800E-001	-3.41116E-001	-3.15958E-001	-1.20932E-006	9.36965E-007	-2.14628E-006	-3.41000E-001	3.75206E-004	6	..........a	-327.68
	18	0.38	-2.88801E-001	-3.39125E-001	-3.13963E-001	-1.20676E-006	9.39595E-007	-2.14635E-006	-3.39000E-001	3.81873E-004	6	..........a	-327.68
	19	0.4	-2.86811E-001	-3.37121E-001	-3.11966E-001	-1.20463E-006	9.44377E-007	-2.14901E-006	-3.37000E-001	4.08539E-004	6	..........a	-327.68
	20	0.42	-2.84819E-001	-3.35094E-001	-3.09956E-001	-1.20208E-006	9.47498E-007	-2.14958E-006	-3.35000E-001	3.95206E-004	6	..........a	-327.68
	21	0.44	-2.82801E-001	-3.33110E-001	-3.07955E-001	-1.19963E-006	9.49371E-007	-2.14900E-006	-3.33000E-001	4.03539E-004	6	..........a	-327.68
	22	0.46	-2.80828E-001	-3.31105E-001	-3.05966E-001	-1.19596E-006	9.51928E-007	-2.14788E-006	-3.31000E-001	3.76873E-004	6	..........a	-327.68
	23	0.48	-2.78822E-001	-3.29096E-001	-3.03959E-001	-1.19241E-006	9.55347E-007	-2.14776E-006	-3.29000E-001	3.66873E-004	6	..........a	-327.68
	24	0.5	-2.76831E-001	-3.27099E-001	-3.01965E-001	-1.19159E-006	9.58619E-007	-2.15021E-006	-3.27000E-001	3.98539E-004	6	..........a	-327.68
	25	0.52	-2.74825E-001	-3.25106E-001	-2.99965E-001	-1.18923E-006	9.61725E-007	-2.15096E-006	-3.25000E-001	3.90206E-004	6	..........a	-327.68
	26	0.54	-2.72816E-001	-3.23108E-001	-2.97962E-001	-1.18667E-006	9.63416E-007	-2.15008E-006	-3.23000E-001	3.99373E-004	6	..........a	-327.68
	27	0.56	-2.70825E-001	-3.21096E-001	-2.95960E-001	-1.18315E-006	9.65742E-007	-2.14889E-006	-3.21000E-001	3.72706E-004	6	..........a	-327.68
	28	0.58	-2.68838E-001	-3.19090E-001	-2.93964E-001	-1.18011E-006	9.67299E-007	-2.14741E-006	-3.19000E-001	4.03539E-004	6	..........a	-327.68
	29	0.6	-2.66801E-001	-3.17099E-001	-2.91950E-001	-1.17835E-006	9.71267E-007	-2.14962E-006	-3.17000E-001	4.05206E-004	6	..........a	-327.68
	30	0.62	-2.64796E-001	-3.15075E-001	-2.89936E-001	-1.17605E-006	9.74391E-007	-2.15044E-006	-3.15000E-001	3.74373E-004	6	..........a	-327.68
	31	0.64	-2.62792E-001	-3.13094E-001	-2.87943E-001	-1.17381E-006	9.75090E-007	-2.14890E-006	-3.13000E-001	3.67706E-004	6	..........a	-327.68
	32	0.66	-2.60797E-001	-3.11081E-001	-2.85939E-001	-1.17078E-006	9.77090E-007	-2.14787E-006	-3.11000E-001	3.65206E-004	6	..........a	-327.68
	33	0.68	-2.58804E-001	-3.09080E-001	-2.83942E-001	-1.16824E-006	9.79285E-007	-2.14753E-006	-3.09000E-001	3.71873E-004	6	..........a	-327.68
	34	0.7	-2.56811E-001	-3.07098E-001	-2.81955E-001	-1.16593E-006	9.81747E-007	-2.14768E-006	-3.07000E-001	3.81873E-004	6	..........a	-327.68
	35	0.72	-2.54811E-001	-3.05084E-001	-2.79948E-001	-1.16425E-006	9.84607E-007	-2.14886E-006	-3.05000E-001	3.90206E-004	6	..........a	-327.68
	36	0.74	-2.52814E-001	-3.03087E-001	-2.77951E-001	-1.16189E-006	9.85363E-007	-2.14725E-006	-3.03000E-001	3.62706E-004	6	..........a	-327.68
	37	0.76	-2.50791E-001	-3.01099E-001	-2.75945E-001	-1.15869E-006	9.86443E-007	-2.14513E-006	-3.01000E-001	3.77706E-004	6	..........a	-327.68
	38	0.78	-2.48799E-001	-2.99082E-001	-2.73941E-001	-1.15632E-006	9.88490E-007	-2.14481E-006	-2.99000E-001	3.79373E-004	6	..........a	-327.68
	39	0.8	-2.46805E-001	-2.97099E-001	-2.71952E-001	-1.15482E-006	9.90488E-007	-2.14531E-006	-2.97000E-001	3.69373E-004	6	..........a	-327.68
	40	0.82	-2.44774E-001	-2.95059E-001	-2.69916E-001	-1.15329E-006	9.92717E-007	-2.14600E-006	-2.95000E-001	3.67706E-004	6	..........a	-327.68
	41	0.84	-2.42767E-001	-2.93079E-001	-2.67923E-001	-1.15128E-006	9.93882E-007	-2.14516E-006	-2.93000E-001	3.87706E-004	6	..........a	-327.68
	42	0.86	-2.40805E-001	-2.91052E-001	-2.65928E-001	-1.14895E-006	9.95124E-007	-2.14407E-006	-2.91000E-001	3.93539E-004	6	..........a	-327.68
	43	0.88	-2.38775E-001	-2.89081E-001	-2.63928E-001	-1.14621E-006	9.96316E-007	-2.14253E-006	-2.89000E-001	3.65206E-004	6	..........a	-327.68
	44	0.9	-2.36761E-001	-2.87066E-001	-2.61913E-001	-1.14514E-006	9.98264E-007	-2.14340E-006	-2.87000E-001	3.96039E-004	6	..........a	-327.68
	45	0.92	-2.34768E-001	-2.85067E-001	-2.59918E-001	-1.14363E-006	1.00059E-006	-2.14422E-006	-2.85000E-001	3.68539E-004	6	..........a	-327.68
	46	0.94	-2.32789E-001	-2.83081E-001	-2.57935E-001	-1.14240E-006	1.00077E-006	-2.14318E-006	-2.83000E-001	3.76873E-004	6	..........a	-327.68
	47	0.96	-2.30799E-001	-2.81066E-001	-2.55932E-001	-1.13977E-006	1.00146E-006	-2.14123E-006	-2.81000E-001	3.69373E-004	6	..........a	-327.68
	48	0.98	-2.28805E-001	-2.79075E-001	-2.53940E-001	-1.13760E-006	1.00346E-006	-2.14107E-006	-2.79000E-001	3.80206E-004	6	..........a	-327.68
	49	1	-2.26789E-001	-2.77081E-001	-2.51935E-001	-1.13696E-006	1.00540E-006	-2.14236E-006	-2.77000E-001	4.06873E-004	6	..........a	-327.68
	50	1.02	-2.24810E-001	-2.75085E-001	-2.49947E-001	-1.13634E-006	1.00735E-006	-2.14369E-006	-2.75000E-001	3.95206E-004	6	..........a	-327.68
	51	1.04	-2.22801E-001	-2.73070E-001	-2.47935E-001	-1.13550E-006	1.00811E-006	-2.14361E-006	-2.73000E-001	3.63539E-004	6	..........a	-327.68
	52	1.06	-2.20806E-001	-2.71074E-001	-2.45940E-001	-1.13346E-006	1.00905E-006	-2.14251E-006	-2.71000E-001	3.69373E-004	6	..........a	-327.68
	53	1.08	-2.18790E-001	-2.69060E-001	-2.43925E-001	-1.13174E-006	1.00987E-006	-2.14161E-006	-2.69000E-001	3.73539E-004	6	..........a	-327.68
	54	1.1	-2.16778E-001	-2.67079E-001	-2.41928E-001	-1.13170E-006	1.01242E-006	-2.14412E-006	-2.67000E-001	3.71873E-004	6	..........a	-327.68
	55	1.12	-2.14776E-001	-2.65056E-001	-2.39916E-001	-1.13070E-006	1.01438E-006	-2.14508E-006	-2.65000E-001	4.04373E-004	6	..........a	-327.68
	56	1.14	-2.12801E-001	-2.63054E-001	-2.37928E-001	-1.13033E-006	1.01470E-006	-2.14503E-006	-2.63000E-001	3.86873E-004	6	..........a	-327.68
	57	1.16	-2.10817E-001	-2.61046E-001	-2.35931E-001	-1.12868E-006	1.01547E-006	-2.14415E-006	-2.61000E-001	3.80206E-004	6	..........a	-327.68
	58	1.18	-2.08815E-001	-2.59051E-001	-2.33933E-001	-1.12693E-006	1.01680E-006	-2.14373E-006	-2.59000E-001	3.64373E-004	6	..........a	-327.68
	59	1.2	-2.06810E-001	-2.57060E-001	-2.31935E-001	-1.12664E-006	1.01866E-006	-2.14530E-006	-2.57000E-001	3.88539E-004	6	..........a	-327.68
	60	1.22	-2.04816E-001	-2.55056E-001	-2.29936E-001	-1.12674E-006	1.02182E-006	-2.14856E-006	-2.55000E-001	3.94373E-004	6	..........a	-327.68
	61	1.24	-2.02811E-001	-2.53053E-001	-2.27932E-001	-1.12620E-006	1.02159E-006	-2.14779E-006	-2.53000E-001	3.59373E-004	6	..........a	-327.68
	62	1.26	-2.00839E-001	-2.51038E-001	-2.25938E-001	-1.12482E-006	1.02235E-006	-2.14717E-006	-2.51000E-001	3.64373E-004	6	..........a	-327.68
	63	1.28	-1.98829E-001	-2.49060E-001	-2.23944E-001	-1.12348E-006	1.02420E-006	-2.14768E-006	-2.49000E-001	3.63539E-004	6	..........a	-327.68
	64	1.3	-1.96838E-001	-2.47033E-001	-2.21936E-001	-1.12336E-006	1.02641E-006	-2.14976E-006	-2.47000E-001	3.79373E-004	6	..........a	-327.68
	65	1.32	-1.94867E-001	-2.45044E-001	-2.19956E-001	-1.12327E-006	1.02884E-006	-2.15211E-006	-2.45000E-001	3.57706E-004	6	..........a	-327.68
	66	1.34	-1.92859E-001	-2.43023E-001	-2.17941E-001	-1.12266E-006	1.02896E-006	-2.15162E-006	-2.43000E-001	3.80206E-004	6	..........a	-327.68
	67	1.36	-1.90857E-001	-2.41039E-001	-2.15948E-001	-1.12132E-006	1.03057E-006	-2.15189E-006	-2.41000E-001	3.81039E-004	6	..........a	-327.68
	68	1.38	-1.88828E-001	-2.39014E-001	-2.13921E-001	-1.11997E-006	1.03130E-006	-2.15127E-006	-2.39000E-001	3.75206E-004	6	..........a	-327.68
	69	1.4	-1.86837E-001	-2.37025E-001	-2.11931E-001	-1.12012E-006	1.03361E-006	-2.15373E-006	-2.37000E-001	3.71039E-004	6	..........a	-327.68
	70	1.42	-1.84858E-001	-2.35030E-001	-2.09944E-001	-1.12066E-006	1.03605E-006	-2.15671E-006	-2.35000E-001	3.85206E-004	6	..........a	-327.68
	71	1.44	-1.82856E-001	-2.33016E-001	-2.07936E-001	-1.11958E-006	1.03641E-006	-2.15599E-006	-2.33000E-001	3.75206E-004	6	..........a	-327.68
	72	1.46	-1.80844E-001	-2.31007E-001	-2.05926E-001	-1.11786E-006	1.03779E-006	-2.15565E-006	-2.31000E-001	3.78539E-004	6	..........a	-327.68
	73	1.48	-1.78856E-001	-2.29019E-001	-2.03937E-001	-1.11695E-006	1.03870E-006	-2.15564E-006	-2.29000E-001	3.91873E-004	6	..........a	-327.68
	74	1.5	-1.76869E-001	-2.27014E-001	-2.01941E-001	-1.11777E-006	1.04105E-006	-2.15883E-006	-2.27000E-001	3.84373E-004	6	..........a	-327.68
	75	1.52	-1.74861E-001	-2.25011E-001	-1.99936E-001	-1.11691E-006	1.04382E-006	-2.16074E-006	-2.25000E-001	3.58539E-004	6	..........a	-327.68
	76	1.54	-1.72875E-001	-2.22996E-001	-1.97936E-001	-1.11604E-006	1.04385E-006	-2.15989E-006	-2.23000E-001	3.70206E-004	6	..........a	-327.68
	77	1.56	-1.70860E-001	-2.21009E-001	-1.95934E-001	-1.11548E-006	1.04512E-006	-2.16060E-006	-2.21000E-001	3.72706E-004	6	..........a	-327.68
	78	1.58	-1.68879E-001	-2.19016E-001	-1.93947E-001	-1.11358E-006	1.04624E-006	-2.15982E-006	-2.19000E-001	3.73539E-004	6	..........a	-327.68
	79	1.6	-1.66880E-001	-2.17001E-001	-1.91941E-001	-1.11409E-006	1.04803E-006	-2.16212E-006	-2.17000E-001	3.78539E-004	6	..........a	-327.68
	80	1.62	-1.64881E-001	-2.14990E-001	-1.89936E-001	-1.11340E-006	1.05039E-006	-2.16379E-006	-2.15000E-001	3.57706E-004	6	..........a	-327.68
	81	1.64	-1.62830E-001	-2.12967E-001	-1.87898E-001	-1.11361E-006	1.05064E-006	-2.16425E-006	-2.13000E-001	3.90206E-004	6	..........a	-327.68
	82	1.66	-1.60847E-001	-2.10989E-001	-1.85918E-001	-1.11174E-006	1.05125E-006	-2.16299E-006	-2.11000E-001	3.61873E-004	6	..........a	-327.68
	83	1.68	-1.58859E-001	-2.08990E-001	-1.83924E-001	-1.11009E-006	1.05314E-006	-2.16323E-006	-2.09000E-001	3.88539E-004	6	..........a	-327.68
	84	1.7	-1.56848E-001	-2.06989E-001	-1.81918E-001	-1.11009E-006	1.05516E-006	-2.16525E-006	-2.07000E-001	3.54373E-004	6	..........a	-327.68
	85	1.72	-1.54863E-001	-2.05011E-001	-1.79937E-001	-1.11043E-006	1.05668E-006	-2.16711E-006	-2.05000E-001	3.70206E-004	6	..........a	-327.68
	86	1.74	-1.52851E-001	-2.02980E-001	-1.77915E-001	-1.10963E-006	1.05727E-006	-2.16690E-006	-2.03000E-001	3.62706E-004	6	..........a	-327.68
	87	1.76	-1.50874E-001	-2.00992E-001	-1.75933E-001	-1.10850E-006	1.05742E-006	-2.16592E-006	-2.01000E-001	3.85206E-004	6	..........a	-327.68
	88	1.78	-1.48849E-001	-1.98997E-001	-1.73923E-001	-1.10757E-006	1.05899E-006	-2.16656E-006	-1.99000E-001	3.85206E-004	6	..........a	-327.68
	89	1.8	-1.46857E-001	-1.97012E-001	-1.71935E-001	-1.10716E-006	1.06085E-006	-2.16800E-006	-1.97000E-001	3.79373E-004	6	..........a	-327.68
	90	1.82	-1.44856E-001	-1.95011E-001	-1.69934E-001	-1.10678E-006	1.06264E-006	-2.16942E-006	-1.95000E-001	3.82706E-004	6	..........a	-327.68
	91	1.84	-1.42852E-001	-1.92992E-001	-1.67922E-001	-1.10617E-006	1.06268E-006	-2.16885E-006	-1.93000E-001	3.69373E-004	6	..........a	-327.68
	92	1.86	-1.40861E-001	-1.90980E-001	-1.65921E-001	-1.10570E-006	1.06306E-006	-2.16875E-006	-1.91000E-001	3.92706E-004	6	..........a	-327.68
	93	1.88	-1.38832E-001	-1.88972E-001	-1.63902E-001	-1.10345E-006	1.06391E-006	-2.16736E-006	-1.89000E-001	3.72706E-004	6	..........a	-327.68
	94	1.9	-1.36836E-001	-1.86970E-001	-1.61903E-001	-1.10381E-006	1.06525E-006	-2.16907E-006	-1.87000E-001	3.82706E-004	6	..........a	-327.68
	95	1.92	-1.34824E-001	-1.84986E-001	-1.59905E-001	-1.10355E-006	1.06734E-006	-2.17089E-006	-1.85000E-001	3.96873E-004	6	..........a	-327.68
	96	1.94	-1.32831E-001	-1.82961E-001	-1.57896E-001	-1.10377E-006	1.06797E-006	-2.17174E-006	-1.83000E-001	3.81873E-004	6	..........a	-327.68
	97	1.96	-1.30824E-001	-1.80989E-001	-1.55906E-001	-1.10145E-006	1.06810E-006	-2.16955E-006	-1.81000E-001	3.83539E-004	6	..........a	-327.68
	98	1.98	-1.28837E-001	-1.78982E-001	-1.53910E-001	-1.10003E-006	1.06860E-006	-2.16863E-006	-1.79000E-001	3.91039E-004	6	..........a	-327.68
	99	2	-1.26821E-001	-1.77016E-001	-1.51918E-001	-1.10060E-006	1.06991E-006	-2.17051E-006	-1.77000E-001	3.79373E-004	6	..........a	-327.68
	100	2.02	-1.24836E-001	-1.74994E-001	-1.49915E-001	-1.10084E-006	1.07175E-006	-2.17259E-006	-1.75000E-001	3.99373E-004	6	..........a	-327.68
