EXPLAIN
TAG	SQUARE_WAVE
TITLE	LABEL	Square Wave Voltammetry	Test Identifier
DATE	LABEL	8/10/2020	Date
TIME	LABEL	12:50:51	Time
NOTES	NOTES	1	Notes...
	
PSTAT	PSTAT	REF600-24079	Potentiostat
VINIT	QUANT	-3.50000E-001	Initial E (V)
VFINAL	QUANT	-1.50000E-001	Final E (V)
STEPSIZE	QUANT	2.00000E+000	Step Size (mV)
TIMERRES	QUANT	3.33340E-005	&Timer Resolution
FREQUENCY	QUANT	7.50000E+001	Frequency (Hz)
PULSESIZE	QUANT	2.50000E+001	Pulse Size E (mV)
PULSEON	QUANT	1.33333E-002	Pulse &Time (s)
NOISEREJECT	TOGGLE	F	Noise Rejection
AREA	QUANT	2.00000E-002	Sample Area (cm^2)
IMODE	SELECTOR	1	I/E Range Mode
IRANGE	QUANT	1.00000E-003	Max Current (mA)
EQDELAY	IQUANT	10	Equil. Time (s)
IRCOMP	SELECTOR	0	IRComp
PFCOR	QUANT	5.00000E+001	PF Corr. (ohm)
CYCLES	IQUANT	101	C&ycles (#)
ELECTRODETYPE	SELECTOR	0	Electrode Type
STRIPPING	TOGGLE	F	Used for Stripping
POLARITY	TOGGLE	F	Signal Polarity
LINEFREQ	IQUANT	60	Line Frequency (Hz)
INTPERIOD	QUANT	3.3334E-005	Integration Period (s)
SEQUENCER	TOGGLE	TRUE	Run as Sequence
PSTATMODEL	IQUANT	4	Pstat Model
PSTATSECTION	LABEL	REF600-24079	Pstat Section
PSTATSERIALNO	LABEL	24079	Pstat Serial Number
CTRLMODE	IQUANT	1	Control Mode
ELECTROMETER	IQUANT	0	RE=0 or CS=1
IESTAB	IQUANT	2	I/E Stability
CASPEED	IQUANT	6	Control Amp Speed
CONVENTION	IQUANT	1	Current Convention
ICHRANGE	IQUANT	2	Ich Range
ICHRANGEMODE	TOGGLE	F	Ich Auto Range
ICHOFFSETENABLE	TOGGLE	F	Ich Offset Enable
ICHOFFSET	QUANT	0	Ich Offset (V)
ICHFILTER	IQUANT	2	Ich Filter
VCHRANGE	IQUANT	2	Vch Range
VCHRANGEMODE	TOGGLE	F	Vch Auto Range
VCHOFFSETENABLE	TOGGLE	F	Vch Offset Enable
VCHOFFSET	QUANT	0	Vch Offset (V)
VCHFILTER	IQUANT	2	Vch Filter
ACHRANGE	IQUANT	2	Ach Range
ACHOFFSETENABLE	TOGGLE	F	Ach Offset Enable
ACHOFFSET	QUANT	0	Ach Offset (V)
ACHFILTER	IQUANT	1	Ach Filter
IERANGELOWERLIMIT	IQUANT	1	I/E Range Lower Limit
IERANGEMODE	TOGGLE	F	I/E AutoRange
IERANGE	IQUANT	6	I/E Range
POSFEEDENABLE	TOGGLE	F	Positive Feedback IR Comp
POSFEEDRESISTANCE	QUANT	0	Positive Feedback Resistance (ohm)
ACHSELECT	IQUANT	0	Ach Select
SENSECABLEID	IQUANT	13	Sense Cable ID
PWRCABLEID	IQUANT	13	Power Cable ID
DCCALDATE	LABEL	6/30/2020	DC Calibration Date
ACCALDATE	LABEL	6/30/2020	AC Calibration Date
THERMOSELECT	IQUANT	1	Thermo Select
FRAMEWORKVERSION	LABEL	7.8.2	Framework Version
INSTRUMENTVERSION	LABEL	4.40	Instrument Version
CURVE	TABLE	101
	Pt	T	Vfwd	Vrev	Vstep	Ifwd	Irev	Idif	Sig	Ach	IERange	Over	Temp
	#	s	V	V	V	A	A	A	V	V	#	bits	deg C
	0	0.013333	-3.24905E-001	-3.86710E-001	-3.55807E-001	-1.22207E-009	-4.96108E-007	4.94885E-007	-3.75000E-001	3.82706E-004	6	..........a	-327.68
	1	0.026667	-3.08573E-001	-3.87198E-001	-3.47886E-001	3.08732E-007	-3.20635E-007	6.29368E-007	-3.73000E-001	3.68956E-004	6	..........a	-327.68
	2	0.04	-3.06188E-001	-3.85203E-001	-3.45696E-001	2.54903E-007	-2.92699E-007	5.47602E-007	-3.71000E-001	3.37706E-004	6	..........a	-327.68
	3	0.053333	-3.04212E-001	-3.83248E-001	-3.43730E-001	2.55971E-007	-2.85381E-007	5.41351E-007	-3.69000E-001	3.81456E-004	6	..........a	-327.68
	4	0.066667	-3.02208E-001	-3.81256E-001	-3.41732E-001	2.58291E-007	-2.81390E-007	5.39681E-007	-3.67000E-001	3.66456E-004	6	..........a	-327.68
	5	0.08	-3.00230E-001	-3.79248E-001	-3.39739E-001	2.59906E-007	-2.78045E-007	5.37951E-007	-3.65000E-001	3.66456E-004	6	..........a	-327.68
	6	0.093333	-2.98223E-001	-3.77245E-001	-3.37734E-001	2.61684E-007	-2.75784E-007	5.37468E-007	-3.63000E-001	3.60206E-004	6	..........a	-327.68
	7	0.106667	-2.96240E-001	-3.75223E-001	-3.35732E-001	2.63467E-007	-2.73429E-007	5.36896E-007	-3.61000E-001	3.78956E-004	6	..........a	-327.68
	8	0.12	-2.94241E-001	-3.73230E-001	-3.33735E-001	2.66567E-007	-2.71204E-007	5.37771E-007	-3.59000E-001	3.57706E-004	6	..........a	-327.68
	9	0.133333	-2.92245E-001	-3.71241E-001	-3.31743E-001	2.67195E-007	-2.70324E-007	5.37518E-007	-3.57000E-001	3.71456E-004	6	..........a	-327.68
	10	0.146667	-2.90241E-001	-3.69240E-001	-3.29740E-001	2.68802E-007	-2.67626E-007	5.36428E-007	-3.55000E-001	3.78956E-004	6	..........a	-327.68
	11	0.16	-2.88243E-001	-3.67226E-001	-3.27735E-001	2.71105E-007	-2.68249E-007	5.39354E-007	-3.53000E-001	3.72706E-004	6	..........a	-327.68
	12	0.173333	-2.86233E-001	-3.65201E-001	-3.25717E-001	2.73858E-007	-2.68209E-007	5.42066E-007	-3.51000E-001	3.68956E-004	6	..........a	-327.68
	13	0.186667	-2.84255E-001	-3.63220E-001	-3.23737E-001	2.75648E-007	-2.67836E-007	5.43484E-007	-3.49000E-001	3.76456E-004	6	..........a	-327.68
	14	0.2	-2.82286E-001	-3.61231E-001	-3.21758E-001	2.77663E-007	-2.67706E-007	5.45369E-007	-3.47000E-001	3.77706E-004	6	..........a	-327.68
	15	0.213333	-2.80272E-001	-3.59206E-001	-3.19739E-001	2.80181E-007	-2.67783E-007	5.47965E-007	-3.45000E-001	3.60206E-004	6	..........a	-327.68
	16	0.226667	-2.78272E-001	-3.57220E-001	-3.17746E-001	2.83349E-007	-2.68326E-007	5.51675E-007	-3.43000E-001	3.52706E-004	6	..........a	-327.68
	17	0.24	-2.76295E-001	-3.55260E-001	-3.15777E-001	2.86730E-007	-2.69431E-007	5.56161E-007	-3.41000E-001	3.55206E-004	6	..........a	-327.68
	18	0.253333	-2.74292E-001	-3.53246E-001	-3.13769E-001	2.90433E-007	-2.70554E-007	5.60986E-007	-3.39000E-001	3.76456E-004	6	..........a	-327.68
	19	0.266667	-2.72303E-001	-3.51245E-001	-3.11774E-001	2.93315E-007	-2.71054E-007	5.64369E-007	-3.37000E-001	3.41456E-004	6	..........a	-327.68
	20	0.28	-2.70312E-001	-3.49256E-001	-3.09784E-001	2.95636E-007	-2.72302E-007	5.67937E-007	-3.35000E-001	3.88956E-004	6	..........a	-327.68
	21	0.293333	-2.68296E-001	-3.47231E-001	-3.07763E-001	3.00486E-007	-2.74774E-007	5.75261E-007	-3.33000E-001	3.88956E-004	6	..........a	-327.68
	22	0.306667	-2.66293E-001	-3.45242E-001	-3.05768E-001	3.04569E-007	-2.77442E-007	5.82012E-007	-3.31000E-001	3.85206E-004	6	..........a	-327.68
	23	0.32	-2.64298E-001	-3.43218E-001	-3.03758E-001	3.09475E-007	-2.79150E-007	5.88625E-007	-3.29000E-001	3.50206E-004	6	..........a	-327.68
	24	0.333333	-2.62295E-001	-3.41235E-001	-3.01765E-001	3.13203E-007	-2.80955E-007	5.94158E-007	-3.27000E-001	3.51456E-004	6	..........a	-327.68
	25	0.346667	-2.60301E-001	-3.39221E-001	-2.99761E-001	3.16341E-007	-2.82440E-007	5.98781E-007	-3.25000E-001	3.71456E-004	6	..........a	-327.68
	26	0.36	-2.58283E-001	-3.37206E-001	-2.97745E-001	3.21709E-007	-2.86546E-007	6.08255E-007	-3.23000E-001	3.52706E-004	6	..........a	-327.68
	27	0.373333	-2.56293E-001	-3.35210E-001	-2.95752E-001	3.24677E-007	-2.87931E-007	6.12608E-007	-3.21000E-001	3.72706E-004	6	..........a	-327.68
	28	0.386667	-2.54327E-001	-3.33231E-001	-2.93779E-001	3.29508E-007	-2.90429E-007	6.19936E-007	-3.19000E-001	3.67706E-004	6	..........a	-327.68
	29	0.4	-2.52333E-001	-3.31223E-001	-2.91778E-001	3.33158E-007	-2.93294E-007	6.26452E-007	-3.17000E-001	3.80206E-004	6	..........a	-327.68
	30	0.413333	-2.50325E-001	-3.29233E-001	-2.89779E-001	3.36923E-007	-2.94907E-007	6.31830E-007	-3.15000E-001	3.78956E-004	6	..........a	-327.68
	31	0.426667	-2.48343E-001	-3.27227E-001	-2.87785E-001	3.41424E-007	-2.98877E-007	6.40301E-007	-3.13000E-001	3.62706E-004	6	..........a	-327.68
	32	0.44	-2.46333E-001	-3.25246E-001	-2.85790E-001	3.45682E-007	-3.01840E-007	6.47522E-007	-3.11000E-001	3.71456E-004	6	..........a	-327.68
	33	0.453333	-2.44335E-001	-3.23240E-001	-2.83787E-001	3.49593E-007	-3.04568E-007	6.54161E-007	-3.09000E-001	3.97706E-004	6	..........a	-327.68
	34	0.466667	-2.42320E-001	-3.21195E-001	-2.81757E-001	3.51800E-007	-3.05948E-007	6.57749E-007	-3.07000E-001	3.61456E-004	6	..........a	-327.68
	35	0.48	-2.40330E-001	-3.19206E-001	-2.79768E-001	3.54046E-007	-3.07086E-007	6.61132E-007	-3.05000E-001	3.72706E-004	6	..........a	-327.68
	36	0.493333	-2.38318E-001	-3.17215E-001	-2.77767E-001	3.58204E-007	-3.10234E-007	6.68438E-007	-3.03000E-001	3.62706E-004	6	..........a	-327.68
	37	0.506667	-2.36320E-001	-3.15187E-001	-2.75753E-001	3.60514E-007	-3.12667E-007	6.73181E-007	-3.01000E-001	3.55206E-004	6	..........a	-327.68
	38	0.52	-2.34342E-001	-3.13187E-001	-2.73765E-001	3.63469E-007	-3.13084E-007	6.76554E-007	-2.99000E-001	3.72706E-004	6	..........a	-327.68
	39	0.533333	-2.32320E-001	-3.11163E-001	-2.71742E-001	3.64134E-007	-3.14429E-007	6.78564E-007	-2.97000E-001	3.58956E-004	6	..........a	-327.68
	40	0.546667	-2.30340E-001	-3.09191E-001	-2.69765E-001	3.64252E-007	-3.15370E-007	6.79621E-007	-2.95000E-001	3.86456E-004	6	..........a	-327.68
	41	0.56	-2.28336E-001	-3.07167E-001	-2.67752E-001	3.65730E-007	-3.16220E-007	6.81949E-007	-2.93000E-001	3.42706E-004	6	..........a	-327.68
	42	0.573333	-2.26355E-001	-3.05158E-001	-2.65757E-001	3.66125E-007	-3.16182E-007	6.82307E-007	-2.91000E-001	3.70206E-004	6	..........a	-327.68
	43	0.586667	-2.24353E-001	-3.03151E-001	-2.63752E-001	3.66037E-007	-3.15192E-007	6.81229E-007	-2.89000E-001	3.33956E-004	6	..........a	-327.68
	44	0.6	-2.22350E-001	-3.01162E-001	-2.61756E-001	3.65032E-007	-3.15502E-007	6.80534E-007	-2.87000E-001	3.87706E-004	6	..........a	-327.68
	45	0.613333	-2.20347E-001	-2.99147E-001	-2.59747E-001	3.64204E-007	-3.14397E-007	6.78601E-007	-2.85000E-001	3.72706E-004	6	..........a	-327.68
	46	0.626667	-2.18363E-001	-2.97147E-001	-2.57755E-001	3.62659E-007	-3.14299E-007	6.76959E-007	-2.83000E-001	3.86456E-004	6	..........a	-327.68
	47	0.64	-2.16327E-001	-2.95123E-001	-2.55725E-001	3.60934E-007	-3.12562E-007	6.73496E-007	-2.81000E-001	3.35206E-004	6	..........a	-327.68
	48	0.653333	-2.14342E-001	-2.93113E-001	-2.53728E-001	3.59796E-007	-3.10654E-007	6.70450E-007	-2.79000E-001	3.86456E-004	6	..........a	-327.68
	49	0.666667	-2.12357E-001	-2.91093E-001	-2.51725E-001	3.55181E-007	-3.07206E-007	6.62387E-007	-2.77000E-001	3.57706E-004	6	..........a	-327.68
	50	0.68	-2.10338E-001	-2.89071E-001	-2.49705E-001	3.51958E-007	-3.04396E-007	6.56353E-007	-2.75000E-001	3.47706E-004	6	..........a	-327.68
	51	0.693333	-2.08337E-001	-2.87051E-001	-2.47694E-001	3.50088E-007	-3.02045E-007	6.52133E-007	-2.73000E-001	3.61456E-004	6	..........a	-327.68
	52	0.706667	-2.06348E-001	-2.85071E-001	-2.45710E-001	3.46340E-007	-2.99890E-007	6.46230E-007	-2.71000E-001	3.52706E-004	6	..........a	-327.68
	53	0.72	-2.04371E-001	-2.83060E-001	-2.43715E-001	3.43059E-007	-2.95967E-007	6.39026E-007	-2.69000E-001	3.63956E-004	6	..........a	-327.68
	54	0.733333	-2.02378E-001	-2.81058E-001	-2.41718E-001	3.38256E-007	-2.92944E-007	6.31200E-007	-2.67000E-001	3.60206E-004	6	..........a	-327.68
	55	0.746667	-2.00380E-001	-2.79021E-001	-2.39700E-001	3.33728E-007	-2.88564E-007	6.22292E-007	-2.65000E-001	3.47706E-004	6	..........a	-327.68
	56	0.76	-1.98383E-001	-2.77050E-001	-2.37717E-001	3.29795E-007	-2.85936E-007	6.15731E-007	-2.63000E-001	3.58956E-004	6	..........a	-327.68
	57	0.773333	-1.96372E-001	-2.75046E-001	-2.35709E-001	3.25304E-007	-2.81938E-007	6.07242E-007	-2.61000E-001	3.77706E-004	6	..........a	-327.68
	58	0.786667	-1.94376E-001	-2.73012E-001	-2.33694E-001	3.21519E-007	-2.77622E-007	5.99141E-007	-2.59000E-001	3.82706E-004	6	..........a	-327.68
	59	0.8	-1.92366E-001	-2.71042E-001	-2.31704E-001	3.16576E-007	-2.73352E-007	5.89928E-007	-2.57000E-001	3.85206E-004	6	..........a	-327.68
	60	0.813333	-1.90362E-001	-2.69018E-001	-2.29690E-001	3.11968E-007	-2.68439E-007	5.80406E-007	-2.55000E-001	3.56456E-004	6	..........a	-327.68
	61	0.826667	-1.88356E-001	-2.66995E-001	-2.27675E-001	3.07597E-007	-2.65093E-007	5.72690E-007	-2.53000E-001	3.48956E-004	6	..........a	-327.68
	62	0.84	-1.86363E-001	-2.64982E-001	-2.25673E-001	3.02987E-007	-2.60773E-007	5.63759E-007	-2.51000E-001	3.33956E-004	6	..........a	-327.68
	63	0.853333	-1.84368E-001	-2.62976E-001	-2.23672E-001	2.98941E-007	-2.56630E-007	5.55571E-007	-2.49000E-001	3.67706E-004	6	..........a	-327.68
	64	0.866667	-1.82357E-001	-2.60975E-001	-2.21666E-001	2.93830E-007	-2.51981E-007	5.45812E-007	-2.47000E-001	3.88956E-004	6	..........a	-327.68
	65	0.88	-1.80385E-001	-2.58973E-001	-2.19679E-001	2.89207E-007	-2.47428E-007	5.36636E-007	-2.45000E-001	3.50206E-004	6	..........a	-327.68
	66	0.893333	-1.78377E-001	-2.56988E-001	-2.17683E-001	2.85179E-007	-2.44571E-007	5.29750E-007	-2.43000E-001	3.50206E-004	6	..........a	-327.68
	67	0.906667	-1.76385E-001	-2.54977E-001	-2.15681E-001	2.82281E-007	-2.41310E-007	5.23592E-007	-2.41000E-001	3.66456E-004	6	..........a	-327.68
	68	0.92	-1.74387E-001	-2.52957E-001	-2.13672E-001	2.78043E-007	-2.36387E-007	5.14430E-007	-2.39000E-001	3.48956E-004	6	..........a	-327.68
	69	0.933333	-1.72420E-001	-2.50993E-001	-2.11707E-001	2.73483E-007	-2.32697E-007	5.06179E-007	-2.37000E-001	3.68956E-004	6	..........a	-327.68
	70	0.946667	-1.70417E-001	-2.48980E-001	-2.09698E-001	2.68592E-007	-2.27151E-007	4.95743E-007	-2.35000E-001	3.48956E-004	6	..........a	-327.68
	71	0.96	-1.68405E-001	-2.46981E-001	-2.07693E-001	2.65054E-007	-2.24420E-007	4.89475E-007	-2.33000E-001	3.56456E-004	6	..........a	-327.68
	72	0.97333	-1.66410E-001	-2.44955E-001	-2.05682E-001	2.62209E-007	-2.21733E-007	4.83942E-007	-2.31000E-001	3.61456E-004	6	..........a	-327.68
	73	0.98667	-1.64392E-001	-2.42958E-001	-2.03675E-001	2.60156E-007	-2.17912E-007	4.78068E-007	-2.29000E-001	3.61456E-004	6	..........a	-327.68
	74	1	-1.62388E-001	-2.40975E-001	-2.01682E-001	2.56156E-007	-2.13822E-007	4.69977E-007	-2.27000E-001	3.90206E-004	6	..........a	-327.68
	75	1.01333	-1.60385E-001	-2.38957E-001	-1.99671E-001	2.52368E-007	-2.10266E-007	4.62634E-007	-2.25000E-001	3.58956E-004	6	..........a	-327.68
	76	1.02667	-1.58395E-001	-2.36968E-001	-1.97682E-001	2.50100E-007	-2.07878E-007	4.57978E-007	-2.23000E-001	3.67706E-004	6	..........a	-327.68
	77	1.04	-1.56385E-001	-2.34955E-001	-1.95670E-001	2.47812E-007	-2.05866E-007	4.53678E-007	-2.21000E-001	3.68956E-004	6	..........a	-327.68
	78	1.05333	-1.54435E-001	-2.32927E-001	-1.93681E-001	2.45569E-007	-2.01930E-007	4.47499E-007	-2.19000E-001	3.80206E-004	6	..........a	-327.68
	79	1.06667	-1.52412E-001	-2.30961E-001	-1.91687E-001	2.41969E-007	-1.98807E-007	4.40776E-007	-2.17000E-001	3.48956E-004	6	..........a	-327.68
	80	1.08	-1.50450E-001	-2.28968E-001	-1.89709E-001	2.39731E-007	-1.95614E-007	4.35345E-007	-2.15000E-001	3.53956E-004	6	..........a	-327.68
	81	1.09333	-1.48422E-001	-2.26956E-001	-1.87689E-001	2.38351E-007	-1.93779E-007	4.32130E-007	-2.13000E-001	3.17706E-004	6	..........a	-327.68
	82	1.10667	-1.46467E-001	-2.24981E-001	-1.85724E-001	2.36868E-007	-1.91841E-007	4.28710E-007	-2.11000E-001	3.60206E-004	6	..........a	-327.68
	83	1.12	-1.44466E-001	-2.22991E-001	-1.83728E-001	2.35461E-007	-1.89546E-007	4.25007E-007	-2.09000E-001	3.55206E-004	6	..........a	-327.68
	84	1.13333	-1.42445E-001	-2.20991E-001	-1.81718E-001	2.33375E-007	-1.86956E-007	4.20331E-007	-2.07000E-001	3.78956E-004	6	..........a	-327.68
	85	1.14667	-1.40452E-001	-2.18956E-001	-1.79704E-001	2.31190E-007	-1.83513E-007	4.14703E-007	-2.05000E-001	3.53956E-004	6	..........a	-327.68
	86	1.16	-1.38453E-001	-2.16958E-001	-1.77706E-001	2.29615E-007	-1.83410E-007	4.13025E-007	-2.03000E-001	3.07706E-004	6	..........a	-327.68
	87	1.17333	-1.36443E-001	-2.14965E-001	-1.75704E-001	2.29582E-007	-1.82330E-007	4.11912E-007	-2.01000E-001	3.70206E-004	6	..........a	-327.68
	88	1.18667	-1.34448E-001	-2.12980E-001	-1.73714E-001	2.29167E-007	-1.80557E-007	4.09725E-007	-1.99000E-001	3.85206E-004	6	..........a	-327.68
	89	1.2	-1.32421E-001	-2.10978E-001	-1.71700E-001	2.27742E-007	-1.78495E-007	4.06237E-007	-1.97000E-001	3.71456E-004	6	..........a	-327.68
	90	1.21333	-1.30432E-001	-2.08968E-001	-1.69700E-001	2.27320E-007	-1.77049E-007	4.04369E-007	-1.95000E-001	3.57706E-004	6	..........a	-327.68
	91	1.22667	-1.28436E-001	-2.06985E-001	-1.67710E-001	2.26162E-007	-1.76077E-007	4.02239E-007	-1.93000E-001	3.71456E-004	6	..........a	-327.68
	92	1.24	-1.26440E-001	-2.04987E-001	-1.65713E-001	2.26284E-007	-1.75532E-007	4.01816E-007	-1.91000E-001	3.62706E-004	6	..........a	-327.68
	93	1.25333	-1.24448E-001	-2.02997E-001	-1.63723E-001	2.26864E-007	-1.73814E-007	4.00678E-007	-1.89000E-001	3.58956E-004	6	..........a	-327.68
	94	1.26667	-1.22458E-001	-2.00995E-001	-1.61727E-001	2.26092E-007	-1.72901E-007	3.98993E-007	-1.87000E-001	3.60206E-004	6	..........a	-327.68
	95	1.28	-1.20450E-001	-1.99000E-001	-1.59725E-001	2.25724E-007	-1.71461E-007	3.97186E-007	-1.85000E-001	3.75206E-004	6	..........a	-327.68
	96	1.29333	-1.18457E-001	-1.97018E-001	-1.57738E-001	2.25744E-007	-1.71501E-007	3.97246E-007	-1.83000E-001	3.75206E-004	6	..........a	-327.68
	97	1.30667	-1.16466E-001	-1.95013E-001	-1.55740E-001	2.25954E-007	-1.72186E-007	3.98141E-007	-1.81000E-001	3.56456E-004	6	..........a	-327.68
	98	1.32	-1.14421E-001	-1.93011E-001	-1.53716E-001	2.26937E-007	-1.70596E-007	3.97533E-007	-1.79000E-001	3.52706E-004	6	..........a	-327.68
	99	1.33333	-1.12447E-001	-1.90998E-001	-1.51723E-001	2.26509E-007	-1.70006E-007	3.96515E-007	-1.77000E-001	3.72706E-004	6	..........a	-327.68
	100	1.34667	-1.10425E-001	-1.88987E-001	-1.49706E-001	2.25972E-007	-1.69428E-007	3.95400E-007	-1.75000E-001	3.61456E-004	6	..........a	-327.68
