EXPLAIN
TAG	SQUARE_WAVE
TITLE	LABEL	Square Wave Voltammetry	Test Identifier
DATE	LABEL	8/10/2020	Date
TIME	LABEL	16:22:20	Time
NOTES	NOTES	1	Notes...
	 STD1 1 fgml 08102
PSTAT	PSTAT	REF600-24079	Potentiostat
VINIT	QUANT	-3.50000E-001	Initial E (V)
VFINAL	QUANT	-1.50000E-001	Final E (V)
STEPSIZE	QUANT	2.00000E+000	Step Size (mV)
TIMERRES	QUANT	3.33340E-005	&Timer Resolution
FREQUENCY	QUANT	1.00000E+001	Frequency (Hz)
PULSESIZE	QUANT	2.50000E+001	Pulse Size E (mV)
PULSEON	QUANT	1.00000E-001	Pulse &Time (s)
NOISEREJECT	TOGGLE	F	Noise Rejection
AREA	QUANT	2.00000E-002	Sample Area (cm^2)
IMODE	SELECTOR	1	I/E Range Mode
IRANGE	QUANT	1.00000E-003	Max Current (mA)
EQDELAY	IQUANT	10	Equil. Time (s)
IRCOMP	SELECTOR	0	IRComp
PFCOR	QUANT	5.00000E+001	PF Corr. (ohm)
CYCLES	IQUANT	101	C&ycles (#)
ELECTRODETYPE	SELECTOR	0	Electrode Type
STRIPPING	TOGGLE	F	Used for Stripping
POLARITY	TOGGLE	F	Signal Polarity
LINEFREQ	IQUANT	60	Line Frequency (Hz)
INTPERIOD	QUANT	3.3334E-005	Integration Period (s)
SEQUENCER	TOGGLE	TRUE	Run as Sequence
PSTATMODEL	IQUANT	4	Pstat Model
PSTATSECTION	LABEL	REF600-24079	Pstat Section
PSTATSERIALNO	LABEL	24079	Pstat Serial Number
CTRLMODE	IQUANT	1	Control Mode
ELECTROMETER	IQUANT	0	RE=0 or CS=1
IESTAB	IQUANT	2	I/E Stability
CASPEED	IQUANT	6	Control Amp Speed
CONVENTION	IQUANT	1	Current Convention
ICHRANGE	IQUANT	2	Ich Range
ICHRANGEMODE	TOGGLE	F	Ich Auto Range
ICHOFFSETENABLE	TOGGLE	F	Ich Offset Enable
ICHOFFSET	QUANT	0	Ich Offset (V)
ICHFILTER	IQUANT	2	Ich Filter
VCHRANGE	IQUANT	2	Vch Range
VCHRANGEMODE	TOGGLE	F	Vch Auto Range
VCHOFFSETENABLE	TOGGLE	F	Vch Offset Enable
VCHOFFSET	QUANT	0	Vch Offset (V)
VCHFILTER	IQUANT	2	Vch Filter
ACHRANGE	IQUANT	2	Ach Range
ACHOFFSETENABLE	TOGGLE	F	Ach Offset Enable
ACHOFFSET	QUANT	0	Ach Offset (V)
ACHFILTER	IQUANT	1	Ach Filter
IERANGELOWERLIMIT	IQUANT	1	I/E Range Lower Limit
IERANGEMODE	TOGGLE	F	I/E AutoRange
IERANGE	IQUANT	6	I/E Range
POSFEEDENABLE	TOGGLE	F	Positive Feedback IR Comp
POSFEEDRESISTANCE	QUANT	0	Positive Feedback Resistance (ohm)
ACHSELECT	IQUANT	0	Ach Select
SENSECABLEID	IQUANT	13	Sense Cable ID
PWRCABLEID	IQUANT	13	Power Cable ID
DCCALDATE	LABEL	6/30/2020	DC Calibration Date
ACCALDATE	LABEL	6/30/2020	AC Calibration Date
THERMOSELECT	IQUANT	1	Thermo Select
FRAMEWORKVERSION	LABEL	7.8.2	Framework Version
INSTRUMENTVERSION	LABEL	4.40	Instrument Version
CURVE	TABLE	101
	Pt	T	Vfwd	Vrev	Vstep	Ifwd	Irev	Idif	Sig	Ach	IERange	Over	Temp
	#	s	V	V	V	A	A	A	V	V	#	bits	deg C
	0	0.1	-3.24882E-001	-3.74903E-001	-3.49892E-001	-1.04901E-007	-1.85882E-007	8.09810E-008	-3.75000E-001	4.31706E-004	6	..........a	-327.68
	1	0.2	-3.22862E-001	-3.72897E-001	-3.47879E-001	-9.18688E-008	-1.79128E-007	8.72591E-008	-3.73000E-001	4.24539E-004	6	..........a	-327.68
	2	0.3	-3.20904E-001	-3.70785E-001	-3.45845E-001	-8.83453E-008	-1.75190E-007	8.68444E-008	-3.71000E-001	4.21706E-004	6	..........a	-327.68
	3	0.4	-3.18904E-001	-3.68962E-001	-3.43933E-001	-8.56490E-008	-1.71669E-007	8.60196E-008	-3.69000E-001	4.13706E-004	6	..........a	-327.68
	4	0.5	-3.16783E-001	-3.66916E-001	-3.41849E-001	-8.34957E-008	-1.68625E-007	8.51288E-008	-3.67000E-001	4.13373E-004	6	..........a	-327.68
	5	0.6	-3.14872E-001	-3.64840E-001	-3.39856E-001	-8.11277E-008	-1.65511E-007	8.43834E-008	-3.65000E-001	4.10706E-004	6	..........a	-327.68
	6	0.7	-3.12905E-001	-3.62818E-001	-3.37862E-001	-7.92552E-008	-1.62568E-007	8.33126E-008	-3.63000E-001	4.26373E-004	6	..........a	-327.68
	7	0.8	-3.10881E-001	-3.60898E-001	-3.35890E-001	-7.71222E-008	-1.59847E-007	8.27249E-008	-3.61000E-001	4.23039E-004	6	..........a	-327.68
	8	0.9	-3.08877E-001	-3.58898E-001	-3.33888E-001	-7.53073E-008	-1.57014E-007	8.17071E-008	-3.59000E-001	4.24539E-004	6	..........a	-327.68
	9	1	-3.06841E-001	-3.56884E-001	-3.31863E-001	-7.33918E-008	-1.54328E-007	8.09363E-008	-3.57000E-001	4.11706E-004	6	..........a	-327.68
	10	1.1	-3.04911E-001	-3.54843E-001	-3.29877E-001	-7.15188E-008	-1.51852E-007	8.03335E-008	-3.55000E-001	4.12039E-004	6	..........a	-327.68
	11	1.2	-3.02896E-001	-3.52913E-001	-3.27905E-001	-6.95503E-008	-1.49395E-007	7.98445E-008	-3.53000E-001	4.20206E-004	6	..........a	-327.68
	12	1.3	-3.00891E-001	-3.50899E-001	-3.25895E-001	-6.78897E-008	-1.46654E-007	7.87647E-008	-3.51000E-001	4.26873E-004	6	..........a	-327.68
	13	1.4	-2.98863E-001	-3.48907E-001	-3.23885E-001	-6.61965E-008	-1.44312E-007	7.81156E-008	-3.49000E-001	4.03373E-004	6	..........a	-327.68
	14	1.5	-2.96891E-001	-3.46874E-001	-3.21882E-001	-6.41786E-008	-1.42117E-007	7.79386E-008	-3.47000E-001	4.26539E-004	6	..........a	-327.68
	15	1.6	-2.94868E-001	-3.44932E-001	-3.19900E-001	-6.26321E-008	-1.39765E-007	7.71332E-008	-3.45000E-001	4.21539E-004	6	..........a	-327.68
	16	1.7	-2.92731E-001	-3.42934E-001	-3.17833E-001	-6.07238E-008	-1.37358E-007	7.66341E-008	-3.43000E-001	4.28539E-004	6	..........a	-327.68
	17	1.8	-2.90802E-001	-3.40882E-001	-3.15842E-001	-5.91416E-008	-1.35229E-007	7.60873E-008	-3.41000E-001	4.16706E-004	6	..........a	-327.68
	18	1.9	-2.88905E-001	-3.38843E-001	-3.13874E-001	-5.73000E-008	-1.33043E-007	7.57430E-008	-3.39000E-001	4.22206E-004	6	..........a	-327.68
	19	2	-2.86889E-001	-3.36898E-001	-3.11894E-001	-5.56488E-008	-1.30913E-007	7.52642E-008	-3.37000E-001	4.21373E-004	6	..........a	-327.68
	20	2.1	-2.84866E-001	-3.34903E-001	-3.09885E-001	-5.37499E-008	-1.28326E-007	7.45758E-008	-3.35000E-001	4.24539E-004	6	..........a	-327.68
	21	2.2	-2.82825E-001	-3.32876E-001	-3.07850E-001	-5.19957E-008	-1.26773E-007	7.47768E-008	-3.33000E-001	4.23206E-004	6	..........a	-327.68
	22	2.3	-2.80934E-001	-3.30831E-001	-3.05883E-001	-5.04228E-008	-1.24694E-007	7.42714E-008	-3.31000E-001	4.25539E-004	6	..........a	-327.68
	23	2.4	-2.78884E-001	-3.28905E-001	-3.03895E-001	-4.87486E-008	-1.22847E-007	7.40984E-008	-3.29000E-001	4.23206E-004	6	..........a	-327.68
	24	2.5	-2.76890E-001	-3.26895E-001	-3.01892E-001	-4.72351E-008	-1.20975E-007	7.37404E-008	-3.27000E-001	4.14539E-004	6	..........a	-327.68
	25	2.6	-2.74851E-001	-3.24890E-001	-2.99871E-001	-4.56776E-008	-1.18930E-007	7.32523E-008	-3.25000E-001	4.21039E-004	6	..........a	-327.68
	26	2.7	-2.72894E-001	-3.22862E-001	-2.97878E-001	-4.40257E-008	-1.17233E-007	7.32073E-008	-3.23000E-001	4.27873E-004	6	..........a	-327.68
	27	2.8	-2.70890E-001	-3.20901E-001	-2.95895E-001	-4.23408E-008	-1.15610E-007	7.32693E-008	-3.21000E-001	4.18706E-004	6	..........a	-327.68
	28	2.9	-2.68897E-001	-3.18927E-001	-2.93912E-001	-4.08696E-008	-1.13603E-007	7.27329E-008	-3.19000E-001	4.14873E-004	6	..........a	-327.68
	29	3	-2.66807E-001	-3.16816E-001	-2.91811E-001	-3.93291E-008	-1.12072E-007	7.27429E-008	-3.17000E-001	4.20706E-004	6	..........a	-327.68
	30	3.1	-2.64903E-001	-3.14883E-001	-2.89893E-001	-3.78559E-008	-1.10237E-007	7.23812E-008	-3.15000E-001	4.26206E-004	6	..........a	-327.68
	31	3.2	-2.62912E-001	-3.12909E-001	-2.87911E-001	-3.62217E-008	-1.08772E-007	7.25499E-008	-3.13000E-001	4.14373E-004	6	..........a	-327.68
	32	3.3	-2.60800E-001	-3.10877E-001	-2.85838E-001	-3.48078E-008	-1.07297E-007	7.24892E-008	-3.11000E-001	4.15373E-004	6	..........a	-327.68
	33	3.4	-2.58820E-001	-3.08874E-001	-2.83847E-001	-3.32426E-008	-1.05669E-007	7.24265E-008	-3.09000E-001	4.33206E-004	6	..........a	-327.68
	34	3.5	-2.56878E-001	-3.06832E-001	-2.81855E-001	-3.18781E-008	-1.04328E-007	7.24496E-008	-3.07000E-001	4.07706E-004	6	..........a	-327.68
	35	3.6	-2.54911E-001	-3.04911E-001	-2.79911E-001	-3.05730E-008	-1.02660E-007	7.20868E-008	-3.05000E-001	4.07539E-004	6	..........a	-327.68
	36	3.7	-2.52873E-001	-3.02923E-001	-2.77898E-001	-2.91791E-008	-1.01437E-007	7.22582E-008	-3.03000E-001	4.09373E-004	6	..........a	-327.68
	37	3.8	-2.50850E-001	-3.00912E-001	-2.75881E-001	-2.76359E-008	-9.99945E-008	7.23585E-008	-3.01000E-001	4.18539E-004	6	..........a	-327.68
	38	3.9	-2.48899E-001	-2.98873E-001	-2.73886E-001	-2.63778E-008	-9.87900E-008	7.24122E-008	-2.99000E-001	4.20873E-004	6	..........a	-327.68
	39	4	-2.46888E-001	-2.96911E-001	-2.71900E-001	-2.51526E-008	-9.74005E-008	7.22479E-008	-2.97000E-001	4.11039E-004	6	..........a	-327.68
	40	4.1	-2.44892E-001	-2.94905E-001	-2.69898E-001	-2.40305E-008	-9.61020E-008	7.20715E-008	-2.95000E-001	4.20539E-004	6	..........a	-327.68
	41	4.2	-2.42790E-001	-2.92774E-001	-2.67782E-001	-2.28190E-008	-9.48288E-008	7.20098E-008	-2.93000E-001	4.17373E-004	6	..........a	-327.68
	42	4.3	-2.40919E-001	-2.90806E-001	-2.65862E-001	-2.18692E-008	-9.33583E-008	7.14891E-008	-2.91000E-001	4.25206E-004	6	..........a	-327.68
	43	4.4	-2.38922E-001	-2.88939E-001	-2.63930E-001	-2.06357E-008	-9.19795E-008	7.13437E-008	-2.89000E-001	4.21373E-004	6	..........a	-327.68
	44	4.5	-2.36885E-001	-2.86901E-001	-2.61893E-001	-1.96032E-008	-9.06099E-008	7.10067E-008	-2.87000E-001	4.15039E-004	6	..........a	-327.68
	45	4.6	-2.34817E-001	-2.84787E-001	-2.59802E-001	-1.87898E-008	-8.94671E-008	7.06773E-008	-2.85000E-001	4.21706E-004	6	..........a	-327.68
	46	4.7	-2.32872E-001	-2.82818E-001	-2.57845E-001	-1.77990E-008	-8.83123E-008	7.05133E-008	-2.83000E-001	4.24706E-004	6	..........a	-327.68
	47	4.8	-2.30886E-001	-2.80920E-001	-2.55903E-001	-1.70126E-008	-8.68638E-008	6.98512E-008	-2.81000E-001	4.23539E-004	6	..........a	-327.68
	48	4.9	-2.28797E-001	-2.78914E-001	-2.53855E-001	-1.61015E-008	-8.55816E-008	6.94802E-008	-2.79000E-001	4.17873E-004	6	..........a	-327.68
	49	5	-2.26827E-001	-2.76891E-001	-2.51859E-001	-1.49733E-008	-8.41265E-008	6.91531E-008	-2.77000E-001	4.12873E-004	6	..........a	-327.68
	50	5.1	-2.24887E-001	-2.74861E-001	-2.49874E-001	-1.43232E-008	-8.27119E-008	6.83887E-008	-2.75000E-001	4.26706E-004	6	..........a	-327.68
	51	5.2	-2.22887E-001	-2.72889E-001	-2.47888E-001	-1.36211E-008	-8.14388E-008	6.78176E-008	-2.73000E-001	4.12706E-004	6	..........a	-327.68
	52	5.3	-2.20878E-001	-2.70867E-001	-2.45873E-001	-1.26464E-008	-8.00406E-008	6.73942E-008	-2.71000E-001	4.23539E-004	6	..........a	-327.68
	53	5.4	-2.18865E-001	-2.68877E-001	-2.43871E-001	-1.18606E-008	-7.85051E-008	6.66445E-008	-2.69000E-001	4.31873E-004	6	..........a	-327.68
	54	5.5	-2.16930E-001	-2.66801E-001	-2.41865E-001	-1.12632E-008	-7.73349E-008	6.60717E-008	-2.67000E-001	4.25873E-004	6	..........a	-327.68
	55	5.6	-2.14903E-001	-2.64928E-001	-2.39916E-001	-1.04878E-008	-7.60711E-008	6.55833E-008	-2.65000E-001	4.31039E-004	6	..........a	-327.68
	56	5.7	-2.12830E-001	-2.62906E-001	-2.37868E-001	-9.76833E-009	-7.46929E-008	6.49246E-008	-2.63000E-001	4.37539E-004	6	..........a	-327.68
	57	5.8	-2.10841E-001	-2.60858E-001	-2.35850E-001	-9.00256E-009	-7.32461E-008	6.42435E-008	-2.61000E-001	4.45873E-004	6	..........a	-327.68
	58	5.9	-2.08877E-001	-2.58825E-001	-2.33851E-001	-8.53250E-009	-7.19759E-008	6.34434E-008	-2.59000E-001	4.37539E-004	6	..........a	-327.68
	59	6	-2.06895E-001	-2.56896E-001	-2.31895E-001	-7.53471E-009	-7.06951E-008	6.31604E-008	-2.57000E-001	4.22206E-004	6	..........a	-327.68
	60	6.1	-2.04844E-001	-2.54902E-001	-2.29873E-001	-6.78728E-009	-6.93432E-008	6.25560E-008	-2.55000E-001	4.14706E-004	6	..........a	-327.68
	61	6.2	-2.02818E-001	-2.52870E-001	-2.27844E-001	-6.17454E-009	-6.77937E-008	6.16192E-008	-2.53000E-001	4.12206E-004	6	..........a	-327.68
	62	6.3	-2.00887E-001	-2.50848E-001	-2.25868E-001	-5.67681E-009	-6.65762E-008	6.08994E-008	-2.51000E-001	4.38706E-004	6	..........a	-327.68
	63	6.4	-1.98889E-001	-2.48896E-001	-2.23892E-001	-4.96972E-009	-6.54831E-008	6.05134E-008	-2.49000E-001	4.24039E-004	6	..........a	-327.68
	64	6.5	-1.96867E-001	-2.46866E-001	-2.21866E-001	-4.45298E-009	-6.41246E-008	5.96716E-008	-2.47000E-001	4.23039E-004	6	..........a	-327.68
	65	6.6	-1.94861E-001	-2.44870E-001	-2.19865E-001	-3.83024E-009	-6.27534E-008	5.89232E-008	-2.45000E-001	4.18539E-004	6	..........a	-327.68
	66	6.7	-1.92889E-001	-2.42798E-001	-2.17844E-001	-2.84845E-009	-6.15322E-008	5.86838E-008	-2.43000E-001	4.29873E-004	6	..........a	-327.68
	67	6.8	-1.90913E-001	-2.40935E-001	-2.15924E-001	-2.21470E-009	-6.03884E-008	5.81737E-008	-2.41000E-001	4.34206E-004	6	..........a	-327.68
	68	6.9	-1.88779E-001	-2.38887E-001	-2.13833E-001	-1.45427E-009	-5.93116E-008	5.78574E-008	-2.39000E-001	4.28039E-004	6	..........a	-327.68
	69	7	-1.86822E-001	-2.36887E-001	-2.11854E-001	-9.93543E-010	-5.81605E-008	5.71670E-008	-2.37000E-001	4.25206E-004	6	..........a	-327.68
	70	7.1	-1.84912E-001	-2.34821E-001	-2.09866E-001	-3.25458E-010	-5.68967E-008	5.65712E-008	-2.35000E-001	4.37706E-004	6	..........a	-327.68
	71	7.2	-1.82891E-001	-2.32885E-001	-2.07888E-001	2.02609E-010	-5.58542E-008	5.60568E-008	-2.33000E-001	4.22206E-004	6	..........a	-327.68
	72	7.3	-1.80819E-001	-2.30873E-001	-2.05846E-001	1.03071E-009	-5.47087E-008	5.57394E-008	-2.31000E-001	4.15039E-004	6	..........a	-327.68
	73	7.4	-1.78815E-001	-2.28866E-001	-2.03840E-001	1.52478E-009	-5.38159E-008	5.53407E-008	-2.29000E-001	4.23539E-004	6	..........a	-327.68
	74	7.5	-1.76861E-001	-2.26830E-001	-2.01845E-001	2.10385E-009	-5.26661E-008	5.47700E-008	-2.27000E-001	4.18373E-004	6	..........a	-327.68
	75	7.6	-1.74885E-001	-2.24886E-001	-1.99886E-001	2.62025E-009	-5.16470E-008	5.42672E-008	-2.25000E-001	4.16873E-004	6	..........a	-327.68
	76	7.7	-1.72874E-001	-2.22870E-001	-1.97872E-001	3.26133E-009	-5.06705E-008	5.39319E-008	-2.23000E-001	4.13539E-004	6	..........a	-327.68
	77	7.8	-1.70845E-001	-2.20887E-001	-1.95866E-001	3.70439E-009	-4.97191E-008	5.34235E-008	-2.21000E-001	4.00206E-004	6	..........a	-327.68
	78	7.9	-1.68899E-001	-2.18876E-001	-1.93888E-001	4.21712E-009	-4.87820E-008	5.29991E-008	-2.19000E-001	3.92206E-004	6	..........a	-327.68
	79	8	-1.66909E-001	-2.16958E-001	-1.91933E-001	4.93654E-009	-4.78805E-008	5.28171E-008	-2.17000E-001	4.02539E-004	6	..........a	-327.68
	80	8.1	-1.64767E-001	-2.14878E-001	-1.89822E-001	5.42494E-009	-4.70164E-008	5.24413E-008	-2.15000E-001	4.05706E-004	6	..........a	-327.68
	81	8.2	-1.62797E-001	-2.12893E-001	-1.87845E-001	5.89700E-009	-4.63560E-008	5.22530E-008	-2.13000E-001	4.06039E-004	6	..........a	-327.68
	82	8.3	-1.60932E-001	-2.10854E-001	-1.85893E-001	6.39473E-009	-4.51625E-008	5.15572E-008	-2.11000E-001	3.93539E-004	6	..........a	-327.68
	83	8.4	-1.58899E-001	-2.08895E-001	-1.83897E-001	7.15949E-009	-4.44494E-008	5.16089E-008	-2.09000E-001	4.07873E-004	6	..........a	-327.68
	84	8.5	-1.56808E-001	-2.06893E-001	-1.81850E-001	7.59855E-009	-4.36393E-008	5.12379E-008	-2.07000E-001	4.15706E-004	6	..........a	-327.68
	85	8.6	-1.54802E-001	-2.04853E-001	-1.79827E-001	8.16862E-009	-4.30509E-008	5.12195E-008	-2.05000E-001	4.04873E-004	6	..........a	-327.68
	86	8.7	-1.52909E-001	-2.02832E-001	-1.77870E-001	8.70802E-009	-4.22351E-008	5.09432E-008	-2.03000E-001	3.92873E-004	6	..........a	-327.68
	87	8.8	-1.50901E-001	-2.00905E-001	-1.75903E-001	9.18809E-009	-4.12633E-008	5.04514E-008	-2.01000E-001	4.09706E-004	6	..........a	-327.68
	88	8.9	-1.48868E-001	-1.98896E-001	-1.73882E-001	9.69015E-009	-4.06763E-008	5.03664E-008	-1.99000E-001	3.95039E-004	6	..........a	-327.68
	89	9	-1.46847E-001	-1.96885E-001	-1.71866E-001	1.01459E-008	-3.99418E-008	5.00877E-008	-1.97000E-001	3.90539E-004	6	..........a	-327.68
	90	9.1	-1.44890E-001	-1.94868E-001	-1.69879E-001	1.06049E-008	-3.92901E-008	4.98950E-008	-1.95000E-001	3.89539E-004	6	..........a	-327.68
	91	9.2	-1.42914E-001	-1.92891E-001	-1.67903E-001	1.12937E-008	-3.85660E-008	4.98597E-008	-1.93000E-001	3.86539E-004	6	..........a	-327.68
	92	9.3	-1.40892E-001	-1.90912E-001	-1.65902E-001	1.15160E-008	-3.78236E-008	4.93396E-008	-1.91000E-001	3.75039E-004	6	..........a	-327.68
	93	9.4	-1.38789E-001	-1.88740E-001	-1.63764E-001	1.21535E-008	-3.72902E-008	4.94436E-008	-1.89000E-001	3.92539E-004	6	..........a	-327.68
	94	9.5	-1.36893E-001	-1.86824E-001	-1.61858E-001	1.26722E-008	-3.66444E-008	4.93166E-008	-1.87000E-001	4.03873E-004	6	..........a	-327.68
	95	9.6	-1.34922E-001	-1.84919E-001	-1.59920E-001	1.32916E-008	-3.59330E-008	4.92246E-008	-1.85000E-001	3.86539E-004	6	..........a	-327.68
	96	9.7	-1.32786E-001	-1.82911E-001	-1.57848E-001	1.35380E-008	-3.50389E-008	4.85768E-008	-1.83000E-001	3.96039E-004	6	..........a	-327.68
	97	9.8	-1.30807E-001	-1.80826E-001	-1.55817E-001	1.41561E-008	-3.45865E-008	4.87425E-008	-1.81000E-001	3.86373E-004	6	..........a	-327.68
	98	9.9	-1.28855E-001	-1.78825E-001	-1.53840E-001	1.45324E-008	-3.39581E-008	4.84905E-008	-1.79000E-001	4.10373E-004	6	..........a	-327.68
	99	10	-1.26915E-001	-1.76880E-001	-1.51897E-001	1.51242E-008	-3.34637E-008	4.85879E-008	-1.77000E-001	3.91873E-004	6	..........a	-327.68
	100	10.1	-1.24819E-001	-1.74899E-001	-1.49859E-001	1.54806E-008	-3.28519E-008	4.83325E-008	-1.75000E-001	3.93706E-004	6	..........a	-327.68
