EXPLAIN
TAG	SQUARE_WAVE
TITLE	LABEL	Square Wave Voltammetry	Test Identifier
DATE	LABEL	8/10/2020	Date
TIME	LABEL	16:24:00	Time
NOTES	NOTES	1	Notes...
	
PSTAT	PSTAT	REF600-24079	Potentiostat
VINIT	QUANT	-3.50000E-001	Initial E (V)
VFINAL	QUANT	-1.50000E-001	Final E (V)
STEPSIZE	QUANT	2.00000E+000	Step Size (mV)
TIMERRES	QUANT	3.33340E-005	&Timer Resolution
FREQUENCY	QUANT	5.00000E+002	Frequency (Hz)
PULSESIZE	QUANT	2.50000E+001	Pulse Size E (mV)
PULSEON	QUANT	2.00000E-003	Pulse &Time (s)
NOISEREJECT	TOGGLE	F	Noise Rejection
AREA	QUANT	2.00000E-002	Sample Area (cm^2)
IMODE	SELECTOR	1	I/E Range Mode
IRANGE	QUANT	1.00000E-002	Max Current (mA)
EQDELAY	IQUANT	10	Equil. Time (s)
IRCOMP	SELECTOR	0	IRComp
PFCOR	QUANT	5.00000E+001	PF Corr. (ohm)
CYCLES	IQUANT	101	C&ycles (#)
ELECTRODETYPE	SELECTOR	0	Electrode Type
STRIPPING	TOGGLE	F	Used for Stripping
POLARITY	TOGGLE	F	Signal Polarity
LINEFREQ	IQUANT	60	Line Frequency (Hz)
INTPERIOD	QUANT	3.3334E-005	Integration Period (s)
SEQUENCER	TOGGLE	TRUE	Run as Sequence
PSTATMODEL	IQUANT	4	Pstat Model
PSTATSECTION	LABEL	REF600-24079	Pstat Section
PSTATSERIALNO	LABEL	24079	Pstat Serial Number
CTRLMODE	IQUANT	1	Control Mode
ELECTROMETER	IQUANT	0	RE=0 or CS=1
IESTAB	IQUANT	2	I/E Stability
CASPEED	IQUANT	6	Control Amp Speed
CONVENTION	IQUANT	1	Current Convention
ICHRANGE	IQUANT	2	Ich Range
ICHRANGEMODE	TOGGLE	F	Ich Auto Range
ICHOFFSETENABLE	TOGGLE	F	Ich Offset Enable
ICHOFFSET	QUANT	0	Ich Offset (V)
ICHFILTER	IQUANT	1	Ich Filter
VCHRANGE	IQUANT	2	Vch Range
VCHRANGEMODE	TOGGLE	F	Vch Auto Range
VCHOFFSETENABLE	TOGGLE	F	Vch Offset Enable
VCHOFFSET	QUANT	0	Vch Offset (V)
VCHFILTER	IQUANT	1	Vch Filter
ACHRANGE	IQUANT	2	Ach Range
ACHOFFSETENABLE	TOGGLE	F	Ach Offset Enable
ACHOFFSET	QUANT	0	Ach Offset (V)
ACHFILTER	IQUANT	1	Ach Filter
IERANGELOWERLIMIT	IQUANT	1	I/E Range Lower Limit
IERANGEMODE	TOGGLE	F	I/E AutoRange
IERANGE	IQUANT	7	I/E Range
POSFEEDENABLE	TOGGLE	F	Positive Feedback IR Comp
POSFEEDRESISTANCE	QUANT	0	Positive Feedback Resistance (ohm)
ACHSELECT	IQUANT	0	Ach Select
SENSECABLEID	IQUANT	13	Sense Cable ID
PWRCABLEID	IQUANT	13	Power Cable ID
DCCALDATE	LABEL	6/30/2020	DC Calibration Date
ACCALDATE	LABEL	6/30/2020	AC Calibration Date
THERMOSELECT	IQUANT	1	Thermo Select
FRAMEWORKVERSION	LABEL	7.8.2	Framework Version
INSTRUMENTVERSION	LABEL	4.40	Instrument Version
CURVE	TABLE	101
	Pt	T	Vfwd	Vrev	Vstep	Ifwd	Irev	Idif	Sig	Ach	IERange	Over	Temp
	#	s	V	V	V	A	A	A	V	V	#	bits	deg C
	0	0.002	-3.26658E-001	-3.64983E-001	-3.45820E-001	-2.17163E-008	-1.18718E-005	1.18501E-005	-3.75000E-001	3.66039E-004	7	..........a	-327.68
	1	0.004	-3.42308E-001	-3.60099E-001	-3.51203E-001	8.46744E-006	-7.33655E-006	1.58040E-005	-3.73000E-001	3.49373E-004	7	..........a	-327.68
	2	0.006	-3.36807E-001	-3.57832E-001	-3.47320E-001	8.19740E-006	-8.05398E-006	1.62514E-005	-3.71000E-001	3.66039E-004	7	..........a	-327.68
	3	0.008	-3.35324E-001	-3.55841E-001	-3.45583E-001	8.12089E-006	-7.92796E-006	1.60489E-005	-3.69000E-001	3.91039E-004	7	..........a	-327.68
	4	0.01	-3.33224E-001	-3.53841E-001	-3.43533E-001	8.17607E-006	-7.92079E-006	1.60969E-005	-3.67000E-001	3.82706E-004	7	..........a	-327.68
	5	0.012	-3.31291E-001	-3.51841E-001	-3.41566E-001	8.18523E-006	-7.90596E-006	1.60912E-005	-3.65000E-001	3.32706E-004	7	..........a	-327.68
	6	0.014	-3.29224E-001	-3.49899E-001	-3.39562E-001	8.19474E-006	-7.90096E-006	1.60957E-005	-3.63000E-001	3.24373E-004	7	..........a	-327.68
	7	0.016	-3.27233E-001	-3.47866E-001	-3.37549E-001	8.20574E-006	-7.88762E-006	1.60934E-005	-3.61000E-001	3.82706E-004	7	..........a	-327.68
	8	0.018	-3.25174E-001	-3.45866E-001	-3.35520E-001	8.21390E-006	-7.87962E-006	1.60935E-005	-3.59000E-001	3.66039E-004	7	..........a	-327.68
	9	0.02	-3.23191E-001	-3.43841E-001	-3.33516E-001	8.21907E-006	-7.87479E-006	1.60939E-005	-3.57000E-001	3.74373E-004	7	..........a	-327.68
	10	0.022	-3.21241E-001	-3.41824E-001	-3.31533E-001	8.22507E-006	-7.87312E-006	1.60982E-005	-3.55000E-001	3.57706E-004	7	..........a	-327.68
	11	0.024	-3.19249E-001	-3.39907E-001	-3.29578E-001	8.22874E-006	-7.86195E-006	1.60907E-005	-3.53000E-001	3.32706E-004	7	..........a	-327.68
	12	0.026	-3.17183E-001	-3.37858E-001	-3.27520E-001	8.23608E-006	-7.85845E-006	1.60945E-005	-3.51000E-001	3.32706E-004	7	..........a	-327.68
	13	0.028	-3.15216E-001	-3.35816E-001	-3.25516E-001	8.23891E-006	-7.85378E-006	1.60927E-005	-3.49000E-001	4.07706E-004	7	..........a	-327.68
	14	0.03	-3.13224E-001	-3.33908E-001	-3.23566E-001	8.24474E-006	-7.84628E-006	1.60910E-005	-3.47000E-001	3.32706E-004	7	..........a	-327.68
	15	0.032	-3.11224E-001	-3.31874E-001	-3.21549E-001	8.24474E-006	-7.84278E-006	1.60875E-005	-3.45000E-001	4.16039E-004	7	..........a	-327.68
	16	0.034	-3.09174E-001	-3.29849E-001	-3.19512E-001	8.24791E-006	-7.83828E-006	1.60862E-005	-3.43000E-001	3.49373E-004	7	..........a	-327.68
	17	0.036	-3.07182E-001	-3.27908E-001	-3.17545E-001	8.25308E-006	-7.84262E-006	1.60957E-005	-3.41000E-001	3.57706E-004	7	..........a	-327.68
	18	0.038	-3.05191E-001	-3.25899E-001	-3.15545E-001	8.25508E-006	-7.83228E-006	1.60874E-005	-3.39000E-001	3.82706E-004	7	..........a	-327.68
	19	0.04	-3.03224E-001	-3.23907E-001	-3.13566E-001	8.25725E-006	-7.82695E-006	1.60842E-005	-3.37000E-001	3.99373E-004	7	..........a	-327.68
	20	0.042	-3.01158E-001	-3.21874E-001	-3.11516E-001	8.26625E-006	-7.82711E-006	1.60934E-005	-3.35000E-001	3.74373E-004	7	..........a	-327.68
	21	0.044	-2.99183E-001	-3.19799E-001	-3.09491E-001	8.26641E-006	-7.82245E-006	1.60889E-005	-3.33000E-001	3.74373E-004	7	..........a	-327.68
	22	0.046	-2.97249E-001	-3.17874E-001	-3.07562E-001	8.26491E-006	-7.81811E-006	1.60830E-005	-3.31000E-001	2.99373E-004	7	..........a	-327.68
	23	0.048	-2.95182E-001	-3.15883E-001	-3.05533E-001	8.27241E-006	-7.81378E-006	1.60862E-005	-3.29000E-001	3.99373E-004	7	..........a	-327.68
	24	0.05	-2.93133E-001	-3.13933E-001	-3.03533E-001	8.27241E-006	-7.81311E-006	1.60855E-005	-3.27000E-001	2.99373E-004	7	..........a	-327.68
	25	0.052	-2.91258E-001	-3.11891E-001	-3.01574E-001	8.27941E-006	-7.81011E-006	1.60895E-005	-3.25000E-001	3.32706E-004	7	..........a	-327.68
	26	0.054	-2.89166E-001	-3.09874E-001	-2.99520E-001	8.28425E-006	-7.80644E-006	1.60907E-005	-3.23000E-001	3.57706E-004	7	..........a	-327.68
	27	0.056	-2.87166E-001	-3.07866E-001	-2.97516E-001	8.27941E-006	-7.80128E-006	1.60807E-005	-3.21000E-001	3.66039E-004	7	..........a	-327.68
	28	0.058	-2.85166E-001	-3.05908E-001	-2.95537E-001	8.28942E-006	-7.80144E-006	1.60909E-005	-3.19000E-001	3.91039E-004	7	..........a	-327.68
	29	0.06	-2.83149E-001	-3.03874E-001	-2.93512E-001	8.28491E-006	-7.79361E-006	1.60785E-005	-3.17000E-001	3.74373E-004	7	..........a	-327.68
	30	0.062	-2.81174E-001	-3.01832E-001	-2.91503E-001	8.28992E-006	-7.79378E-006	1.60837E-005	-3.15000E-001	3.07706E-004	7	..........a	-327.68
	31	0.064	-2.79141E-001	-2.99883E-001	-2.89512E-001	8.29108E-006	-7.79011E-006	1.60812E-005	-3.13000E-001	3.32706E-004	7	..........a	-327.68
	32	0.066	-2.77149E-001	-2.97924E-001	-2.87537E-001	8.29542E-006	-7.78677E-006	1.60822E-005	-3.11000E-001	3.16039E-004	7	..........a	-327.68
	33	0.068	-2.75224E-001	-2.95841E-001	-2.85533E-001	8.29825E-006	-7.78244E-006	1.60807E-005	-3.09000E-001	2.91039E-004	7	..........a	-327.68
	34	0.07	-2.73174E-001	-2.93799E-001	-2.83487E-001	8.30042E-006	-7.77811E-006	1.60785E-005	-3.07000E-001	3.49373E-004	7	..........a	-327.68
	35	0.072	-2.71208E-001	-2.91841E-001	-2.81524E-001	8.30092E-006	-7.78277E-006	1.60837E-005	-3.05000E-001	3.91039E-004	7	..........a	-327.68
	36	0.074	-2.69299E-001	-2.89966E-001	-2.79633E-001	8.30108E-006	-7.77244E-006	1.60735E-005	-3.03000E-001	4.32706E-004	7	..........a	-327.68
	37	0.076	-2.67224E-001	-2.87858E-001	-2.77541E-001	8.30875E-006	-7.76611E-006	1.60749E-005	-3.01000E-001	3.49373E-004	7	..........a	-327.68
	38	0.078	-2.65191E-001	-2.85874E-001	-2.75533E-001	8.30825E-006	-7.76694E-006	1.60752E-005	-2.99000E-001	3.91039E-004	7	..........a	-327.68
	39	0.08	-2.63207E-001	-2.83824E-001	-2.73516E-001	8.31525E-006	-7.76227E-006	1.60775E-005	-2.97000E-001	2.82706E-004	7	..........a	-327.68
	40	0.082	-2.61166E-001	-2.81874E-001	-2.71520E-001	8.31442E-006	-7.76544E-006	1.60799E-005	-2.95000E-001	3.16039E-004	7	..........a	-327.68
	41	0.084	-2.59158E-001	-2.79891E-001	-2.69524E-001	8.31375E-006	-7.76077E-006	1.60745E-005	-2.93000E-001	3.99373E-004	7	..........a	-327.68
	42	0.086	-2.57191E-001	-2.77932E-001	-2.67562E-001	8.31542E-006	-7.75677E-006	1.60722E-005	-2.91000E-001	3.66039E-004	7	..........a	-327.68
	43	0.088	-2.55166E-001	-2.75841E-001	-2.65503E-001	8.32392E-006	-7.75094E-006	1.60749E-005	-2.89000E-001	2.91039E-004	7	..........a	-327.68
	44	0.09	-2.53183E-001	-2.73908E-001	-2.63545E-001	8.32659E-006	-7.74827E-006	1.60749E-005	-2.87000E-001	3.66039E-004	7	..........a	-327.68
	45	0.092	-2.51224E-001	-2.71908E-001	-2.61566E-001	8.32842E-006	-7.74210E-006	1.60705E-005	-2.85000E-001	4.07706E-004	7	..........a	-327.68
	46	0.094	-2.49274E-001	-2.69857E-001	-2.59566E-001	8.32976E-006	-7.74044E-006	1.60702E-005	-2.83000E-001	3.49373E-004	7	..........a	-327.68
	47	0.096	-2.47199E-001	-2.67924E-001	-2.57562E-001	8.32792E-006	-7.73727E-006	1.60652E-005	-2.81000E-001	3.57706E-004	7	..........a	-327.68
	48	0.098	-2.45141E-001	-2.65858E-001	-2.55499E-001	8.33292E-006	-7.73543E-006	1.60684E-005	-2.79000E-001	3.32706E-004	7	..........a	-327.68
	49	0.1	-2.43199E-001	-2.63916E-001	-2.53558E-001	8.33459E-006	-7.73627E-006	1.60709E-005	-2.77000E-001	3.32706E-004	7	..........a	-327.68
	50	0.102	-2.41133E-001	-2.61791E-001	-2.51462E-001	8.33542E-006	-7.72893E-006	1.60644E-005	-2.75000E-001	3.41039E-004	7	..........a	-327.68
	51	0.104	-2.39124E-001	-2.59908E-001	-2.49516E-001	8.33976E-006	-7.72560E-006	1.60654E-005	-2.73000E-001	3.57706E-004	7	..........a	-327.68
	52	0.106	-2.37116E-001	-2.57891E-001	-2.47503E-001	8.34042E-006	-7.72560E-006	1.60660E-005	-2.71000E-001	3.24373E-004	7	..........a	-327.68
	53	0.108	-2.35233E-001	-2.55849E-001	-2.45541E-001	8.34209E-006	-7.72360E-006	1.60657E-005	-2.69000E-001	3.57706E-004	7	..........a	-327.68
	54	0.11	-2.33191E-001	-2.53874E-001	-2.43533E-001	8.34559E-006	-7.71643E-006	1.60620E-005	-2.67000E-001	3.91039E-004	7	..........a	-327.68
	55	0.112	-2.31183E-001	-2.51874E-001	-2.41528E-001	8.34692E-006	-7.71593E-006	1.60629E-005	-2.65000E-001	3.91039E-004	7	..........a	-327.68
	56	0.114	-2.29199E-001	-2.49891E-001	-2.39545E-001	8.34576E-006	-7.71360E-006	1.60594E-005	-2.63000E-001	2.74373E-004	7	..........a	-327.68
	57	0.116	-2.27208E-001	-2.47916E-001	-2.37562E-001	8.35342E-006	-7.70860E-006	1.60620E-005	-2.61000E-001	4.07706E-004	7	..........a	-327.68
	58	0.118	-2.25224E-001	-2.45916E-001	-2.35570E-001	8.35476E-006	-7.70643E-006	1.60612E-005	-2.59000E-001	4.16039E-004	7	..........a	-327.68
	59	0.12	-2.23233E-001	-2.43924E-001	-2.33578E-001	8.35459E-006	-7.70460E-006	1.60592E-005	-2.57000E-001	3.57706E-004	7	..........a	-327.68
	60	0.122	-2.21133E-001	-2.41933E-001	-2.31533E-001	8.35126E-006	-7.70693E-006	1.60582E-005	-2.55000E-001	3.99373E-004	7	..........a	-327.68
	61	0.124	-2.19191E-001	-2.39891E-001	-2.29541E-001	8.35626E-006	-7.70076E-006	1.60570E-005	-2.53000E-001	3.66039E-004	7	..........a	-327.68
	62	0.126	-2.17174E-001	-2.37858E-001	-2.27516E-001	8.35993E-006	-7.69660E-006	1.60565E-005	-2.51000E-001	3.07706E-004	7	..........a	-327.68
	63	0.128	-2.15141E-001	-2.35891E-001	-2.25516E-001	8.35692E-006	-7.69943E-006	1.60564E-005	-2.49000E-001	3.07706E-004	7	..........a	-327.68
	64	0.13	-2.13066E-001	-2.33866E-001	-2.23466E-001	8.36076E-006	-7.69510E-006	1.60559E-005	-2.47000E-001	3.57706E-004	7	..........a	-327.68
	65	0.132	-2.11174E-001	-2.31908E-001	-2.21541E-001	8.35959E-006	-7.69426E-006	1.60539E-005	-2.45000E-001	3.07706E-004	7	..........a	-327.68
	66	0.134	-2.09216E-001	-2.29891E-001	-2.19553E-001	8.36459E-006	-7.69510E-006	1.60597E-005	-2.43000E-001	3.66039E-004	7	..........a	-327.68
	67	0.136	-2.07216E-001	-2.27941E-001	-2.17578E-001	8.35793E-006	-7.69210E-006	1.60500E-005	-2.41000E-001	3.91039E-004	7	..........a	-327.68
	68	0.138	-2.05133E-001	-2.25874E-001	-2.15503E-001	8.36509E-006	-7.69210E-006	1.60572E-005	-2.39000E-001	4.07706E-004	7	..........a	-327.68
	69	0.14	-2.03208E-001	-2.23908E-001	-2.13558E-001	8.36593E-006	-7.68559E-006	1.60515E-005	-2.37000E-001	3.66039E-004	7	..........a	-327.68
	70	0.142	-2.01216E-001	-2.21833E-001	-2.11524E-001	8.36493E-006	-7.68709E-006	1.60520E-005	-2.35000E-001	3.07706E-004	7	..........a	-327.68
	71	0.144	-1.99174E-001	-2.19858E-001	-2.09516E-001	8.36826E-006	-7.69126E-006	1.60595E-005	-2.33000E-001	3.66039E-004	7	..........a	-327.68
	72	0.146	-1.97174E-001	-2.17883E-001	-2.07528E-001	8.36843E-006	-7.68576E-006	1.60542E-005	-2.31000E-001	3.16039E-004	7	..........a	-327.68
	73	0.148	-1.95224E-001	-2.15908E-001	-2.05566E-001	8.37076E-006	-7.68226E-006	1.60530E-005	-2.29000E-001	3.24373E-004	7	..........a	-327.68
	74	0.15	-1.93174E-001	-2.13924E-001	-2.03549E-001	8.36859E-006	-7.69043E-006	1.60590E-005	-2.27000E-001	3.74373E-004	7	..........a	-327.68
	75	0.152	-1.91158E-001	-2.11941E-001	-2.01549E-001	8.36959E-006	-7.68343E-006	1.60530E-005	-2.25000E-001	3.32706E-004	7	..........a	-327.68
	76	0.154	-1.89174E-001	-2.09866E-001	-1.99520E-001	8.37459E-006	-7.68393E-006	1.60585E-005	-2.23000E-001	2.74373E-004	7	..........a	-327.68
	77	0.156	-1.87199E-001	-2.07908E-001	-1.97553E-001	8.37359E-006	-7.68193E-006	1.60555E-005	-2.21000E-001	3.16039E-004	7	..........a	-327.68
	78	0.158	-1.85174E-001	-2.05924E-001	-1.95549E-001	8.37276E-006	-7.68026E-006	1.60530E-005	-2.19000E-001	3.66039E-004	7	..........a	-327.68
	79	0.16	-1.83141E-001	-2.03824E-001	-1.93483E-001	8.37426E-006	-7.68009E-006	1.60544E-005	-2.17000E-001	4.07706E-004	7	..........a	-327.68
	80	0.162	-1.81099E-001	-2.01924E-001	-1.91512E-001	8.37343E-006	-7.67743E-006	1.60509E-005	-2.15000E-001	3.57706E-004	7	..........a	-327.68
	81	0.164	-1.79191E-001	-1.99949E-001	-1.89570E-001	8.37159E-006	-7.68209E-006	1.60537E-005	-2.13000E-001	3.91039E-004	7	..........a	-327.68
	82	0.166	-1.77116E-001	-1.97891E-001	-1.87503E-001	8.38260E-006	-7.68026E-006	1.60629E-005	-2.11000E-001	4.07706E-004	7	..........a	-327.68
	83	0.168	-1.75091E-001	-1.95908E-001	-1.85499E-001	8.37526E-006	-7.67893E-006	1.60542E-005	-2.09000E-001	3.66039E-004	7	..........a	-327.68
	84	0.17	-1.73091E-001	-1.93949E-001	-1.83520E-001	8.37743E-006	-7.67909E-006	1.60565E-005	-2.07000E-001	3.74373E-004	7	..........a	-327.68
	85	0.172	-1.71141E-001	-1.92016E-001	-1.81578E-001	8.38476E-006	-7.67993E-006	1.60647E-005	-2.05000E-001	3.57706E-004	7	..........a	-327.68
	86	0.174	-1.69166E-001	-1.89874E-001	-1.79520E-001	8.38093E-006	-7.67443E-006	1.60554E-005	-2.03000E-001	3.16039E-004	7	..........a	-327.68
	87	0.176	-1.67174E-001	-1.87891E-001	-1.77533E-001	8.38793E-006	-7.67193E-006	1.60599E-005	-2.01000E-001	2.99373E-004	7	..........a	-327.68
	88	0.178	-1.65141E-001	-1.85874E-001	-1.75508E-001	8.38360E-006	-7.67326E-006	1.60569E-005	-1.99000E-001	3.41039E-004	7	..........a	-327.68
	89	0.18	-1.63099E-001	-1.83891E-001	-1.73495E-001	8.38693E-006	-7.67676E-006	1.60637E-005	-1.97000E-001	3.82706E-004	7	..........a	-327.68
	90	0.182	-1.61124E-001	-1.81908E-001	-1.71516E-001	8.38760E-006	-7.67143E-006	1.60590E-005	-1.95000E-001	3.99373E-004	7	..........a	-327.68
	91	0.184	-1.59224E-001	-1.79799E-001	-1.69512E-001	8.38726E-006	-7.67293E-006	1.60602E-005	-1.93000E-001	3.16039E-004	7	..........a	-327.68
	92	0.186	-1.57141E-001	-1.77908E-001	-1.67524E-001	8.38843E-006	-7.67426E-006	1.60627E-005	-1.91000E-001	4.24373E-004	7	..........a	-327.68
	93	0.188	-1.55141E-001	-1.75891E-001	-1.65516E-001	8.39193E-006	-7.67159E-006	1.60635E-005	-1.89000E-001	3.24373E-004	7	..........a	-327.68
	94	0.19	-1.53149E-001	-1.73858E-001	-1.63503E-001	8.39176E-006	-7.66743E-006	1.60592E-005	-1.87000E-001	3.32706E-004	7	..........a	-327.68
	95	0.192	-1.51191E-001	-1.71891E-001	-1.61541E-001	8.39343E-006	-7.66692E-006	1.60604E-005	-1.85000E-001	3.41039E-004	7	..........a	-327.68
	96	0.194	-1.49208E-001	-1.69899E-001	-1.59553E-001	8.39343E-006	-7.66876E-006	1.60622E-005	-1.83000E-001	3.49373E-004	7	..........a	-327.68
	97	0.196	-1.47166E-001	-1.67908E-001	-1.57537E-001	8.39243E-006	-7.66593E-006	1.60584E-005	-1.81000E-001	3.91039E-004	7	..........a	-327.68
	98	0.198	-1.45224E-001	-1.65883E-001	-1.55553E-001	8.40127E-006	-7.66526E-006	1.60665E-005	-1.79000E-001	3.91039E-004	7	..........a	-327.68
	99	0.2	-1.43124E-001	-1.63883E-001	-1.53503E-001	8.39510E-006	-7.66676E-006	1.60619E-005	-1.77000E-001	3.41039E-004	7	..........a	-327.68
	100	0.202	-1.41191E-001	-1.61908E-001	-1.51549E-001	8.40277E-006	-7.66576E-006	1.60685E-005	-1.75000E-001	3.66039E-004	7	..........a	-327.68
