EXPLAIN
TAG	SQUARE_WAVE
TITLE	LABEL	Square Wave Voltammetry	Test Identifier
DATE	LABEL	8/10/2020	Date
TIME	LABEL	16:23:18	Time
NOTES	NOTES	1	Notes...
	
PSTAT	PSTAT	REF600-24079	Potentiostat
VINIT	QUANT	-3.50000E-001	Initial E (V)
VFINAL	QUANT	-1.50000E-001	Final E (V)
STEPSIZE	QUANT	2.00000E+000	Step Size (mV)
TIMERRES	QUANT	3.33340E-005	&Timer Resolution
FREQUENCY	QUANT	1.00000E+002	Frequency (Hz)
PULSESIZE	QUANT	2.50000E+001	Pulse Size E (mV)
PULSEON	QUANT	1.00000E-002	Pulse &Time (s)
NOISEREJECT	TOGGLE	F	Noise Rejection
AREA	QUANT	2.00000E-002	Sample Area (cm^2)
IMODE	SELECTOR	1	I/E Range Mode
IRANGE	QUANT	1.00000E-002	Max Current (mA)
EQDELAY	IQUANT	10	Equil. Time (s)
IRCOMP	SELECTOR	0	IRComp
PFCOR	QUANT	5.00000E+001	PF Corr. (ohm)
CYCLES	IQUANT	101	C&ycles (#)
ELECTRODETYPE	SELECTOR	0	Electrode Type
STRIPPING	TOGGLE	F	Used for Stripping
POLARITY	TOGGLE	F	Signal Polarity
LINEFREQ	IQUANT	60	Line Frequency (Hz)
INTPERIOD	QUANT	3.3334E-005	Integration Period (s)
SEQUENCER	TOGGLE	TRUE	Run as Sequence
PSTATMODEL	IQUANT	4	Pstat Model
PSTATSECTION	LABEL	REF600-24079	Pstat Section
PSTATSERIALNO	LABEL	24079	Pstat Serial Number
CTRLMODE	IQUANT	1	Control Mode
ELECTROMETER	IQUANT	0	RE=0 or CS=1
IESTAB	IQUANT	2	I/E Stability
CASPEED	IQUANT	6	Control Amp Speed
CONVENTION	IQUANT	1	Current Convention
ICHRANGE	IQUANT	2	Ich Range
ICHRANGEMODE	TOGGLE	F	Ich Auto Range
ICHOFFSETENABLE	TOGGLE	F	Ich Offset Enable
ICHOFFSET	QUANT	0	Ich Offset (V)
ICHFILTER	IQUANT	2	Ich Filter
VCHRANGE	IQUANT	2	Vch Range
VCHRANGEMODE	TOGGLE	F	Vch Auto Range
VCHOFFSETENABLE	TOGGLE	F	Vch Offset Enable
VCHOFFSET	QUANT	0	Vch Offset (V)
VCHFILTER	IQUANT	2	Vch Filter
ACHRANGE	IQUANT	2	Ach Range
ACHOFFSETENABLE	TOGGLE	F	Ach Offset Enable
ACHOFFSET	QUANT	0	Ach Offset (V)
ACHFILTER	IQUANT	1	Ach Filter
IERANGELOWERLIMIT	IQUANT	1	I/E Range Lower Limit
IERANGEMODE	TOGGLE	F	I/E AutoRange
IERANGE	IQUANT	7	I/E Range
POSFEEDENABLE	TOGGLE	F	Positive Feedback IR Comp
POSFEEDRESISTANCE	QUANT	0	Positive Feedback Resistance (ohm)
ACHSELECT	IQUANT	0	Ach Select
SENSECABLEID	IQUANT	13	Sense Cable ID
PWRCABLEID	IQUANT	13	Power Cable ID
DCCALDATE	LABEL	6/30/2020	DC Calibration Date
ACCALDATE	LABEL	6/30/2020	AC Calibration Date
THERMOSELECT	IQUANT	1	Thermo Select
FRAMEWORKVERSION	LABEL	7.8.2	Framework Version
INSTRUMENTVERSION	LABEL	4.40	Instrument Version
CURVE	TABLE	101
	Pt	T	Vfwd	Vrev	Vstep	Ifwd	Irev	Idif	Sig	Ach	IERange	Over	Temp
	#	s	V	V	V	A	A	A	V	V	#	bits	deg C
	0	0.01	-3.24938E-001	-3.74428E-001	-3.49683E-001	-1.01885E-007	6.92382E-008	-1.71123E-007	-3.75000E-001	3.61039E-004	7	..........a	-327.68
	1	0.02	-3.23413E-001	-3.72459E-001	-3.47936E-001	-4.04193E-007	1.01343E-007	-5.05536E-007	-3.73000E-001	3.87706E-004	7	..........a	-327.68
	2	0.03	-3.21411E-001	-3.70454E-001	-3.45933E-001	-3.83724E-007	1.14778E-007	-4.98501E-007	-3.71000E-001	3.56039E-004	7	..........a	-327.68
	3	0.04	-3.19434E-001	-3.68466E-001	-3.43950E-001	-3.77489E-007	1.22845E-007	-5.00335E-007	-3.69000E-001	3.82706E-004	7	..........a	-327.68
	4	0.05	-3.17443E-001	-3.66408E-001	-3.41925E-001	-3.71522E-007	1.25512E-007	-4.97034E-007	-3.67000E-001	3.41039E-004	7	..........a	-327.68
	5	0.06	-3.15436E-001	-3.64431E-001	-3.39933E-001	-3.65954E-007	1.33714E-007	-4.99668E-007	-3.65000E-001	3.97706E-004	7	..........a	-327.68
	6	0.07	-3.13331E-001	-3.62441E-001	-3.37886E-001	-3.63187E-007	1.34647E-007	-4.97834E-007	-3.63000E-001	3.81039E-004	7	..........a	-327.68
	7	0.08	-3.11428E-001	-3.60464E-001	-3.35946E-001	-3.55820E-007	1.37547E-007	-4.93367E-007	-3.61000E-001	3.61039E-004	7	..........a	-327.68
	8	0.09	-3.09451E-001	-3.58359E-001	-3.33905E-001	-3.53219E-007	1.43015E-007	-4.96234E-007	-3.59000E-001	3.77706E-004	7	..........a	-327.68
	9	0.1	-3.07416E-001	-3.56446E-001	-3.31931E-001	-3.49019E-007	1.44415E-007	-4.93434E-007	-3.57000E-001	3.84373E-004	7	..........a	-327.68
	10	0.11	-3.05334E-001	-3.54459E-001	-3.29897E-001	-3.44885E-007	1.47049E-007	-4.91934E-007	-3.55000E-001	3.44373E-004	7	..........a	-327.68
	11	0.12	-3.03434E-001	-3.52478E-001	-3.27956E-001	-3.43551E-007	1.48382E-007	-4.91934E-007	-3.53000E-001	3.82706E-004	7	..........a	-327.68
	12	0.13	-3.01394E-001	-3.50418E-001	-3.25906E-001	-3.41518E-007	1.52950E-007	-4.94467E-007	-3.51000E-001	3.79373E-004	7	..........a	-327.68
	13	0.14	-2.99416E-001	-3.48424E-001	-3.23920E-001	-3.40018E-007	1.56983E-007	-4.97001E-007	-3.49000E-001	3.54373E-004	7	..........a	-327.68
	14	0.15	-2.97374E-001	-3.46464E-001	-3.21919E-001	-3.37384E-007	1.58117E-007	-4.95501E-007	-3.47000E-001	3.71039E-004	7	..........a	-327.68
	15	0.16	-2.95399E-001	-3.44474E-001	-3.19937E-001	-3.36917E-007	1.61951E-007	-4.98868E-007	-3.45000E-001	4.22706E-004	7	..........a	-327.68
	16	0.17	-2.93444E-001	-3.42354E-001	-3.17899E-001	-3.32717E-007	1.62551E-007	-4.95267E-007	-3.43000E-001	3.82706E-004	7	..........a	-327.68
	17	0.18	-2.91421E-001	-3.40426E-001	-3.15923E-001	-3.30816E-007	1.64351E-007	-4.95167E-007	-3.41000E-001	3.89373E-004	7	..........a	-327.68
	18	0.19	-2.89341E-001	-3.38483E-001	-3.13912E-001	-3.27916E-007	1.66351E-007	-4.94267E-007	-3.39000E-001	3.69373E-004	7	..........a	-327.68
	19	0.2	-2.87438E-001	-3.36448E-001	-3.11943E-001	-3.24582E-007	1.66351E-007	-4.90934E-007	-3.37000E-001	3.37706E-004	7	..........a	-327.68
	20	0.21	-2.85413E-001	-3.34369E-001	-3.09891E-001	-3.21848E-007	1.70019E-007	-4.91867E-007	-3.35000E-001	3.91039E-004	7	..........a	-327.68
	21	0.22	-2.83396E-001	-3.32421E-001	-3.07908E-001	-3.22315E-007	1.69619E-007	-4.91934E-007	-3.33000E-001	3.89373E-004	7	..........a	-327.68
	22	0.23	-2.81331E-001	-3.30439E-001	-3.05885E-001	-3.16881E-007	1.73452E-007	-4.90333E-007	-3.31000E-001	3.71039E-004	7	..........a	-327.68
	23	0.24	-2.79408E-001	-3.28458E-001	-3.03933E-001	-3.16548E-007	1.77386E-007	-4.93934E-007	-3.29000E-001	3.57706E-004	7	..........a	-327.68
	24	0.25	-2.77418E-001	-3.26429E-001	-3.01923E-001	-3.16181E-007	1.75919E-007	-4.92100E-007	-3.27000E-001	3.66039E-004	7	..........a	-327.68
	25	0.26	-2.75408E-001	-3.24439E-001	-2.99923E-001	-3.10847E-007	1.78153E-007	-4.89000E-007	-3.25000E-001	3.61039E-004	7	..........a	-327.68
	26	0.27	-2.73373E-001	-3.22476E-001	-2.97924E-001	-3.11380E-007	1.77286E-007	-4.88667E-007	-3.23000E-001	3.59373E-004	7	..........a	-327.68
	27	0.28	-2.71411E-001	-3.20451E-001	-2.95931E-001	-3.07246E-007	1.78786E-007	-4.86033E-007	-3.21000E-001	3.82706E-004	7	..........a	-327.68
	28	0.29	-2.69388E-001	-3.18369E-001	-2.93878E-001	-3.06780E-007	1.83154E-007	-4.89933E-007	-3.19000E-001	3.76039E-004	7	..........a	-327.68
	29	0.3	-2.67371E-001	-3.16406E-001	-2.91888E-001	-3.04813E-007	1.83087E-007	-4.87900E-007	-3.17000E-001	3.79373E-004	7	..........a	-327.68
	30	0.31	-2.65319E-001	-3.14469E-001	-2.89894E-001	-3.02913E-007	1.82987E-007	-4.85900E-007	-3.15000E-001	3.91039E-004	7	..........a	-327.68
	31	0.32	-2.63383E-001	-3.12446E-001	-2.87914E-001	-2.99345E-007	1.85221E-007	-4.84566E-007	-3.13000E-001	3.59373E-004	7	..........a	-327.68
	32	0.33	-2.61403E-001	-3.10351E-001	-2.85877E-001	-2.97545E-007	1.85721E-007	-4.83266E-007	-3.11000E-001	3.67706E-004	7	..........a	-327.68
	33	0.34	-2.59401E-001	-3.08406E-001	-2.83903E-001	-2.94045E-007	1.86988E-007	-4.81032E-007	-3.09000E-001	3.27706E-004	7	..........a	-327.68
	34	0.35	-2.57338E-001	-3.06471E-001	-2.81904E-001	-2.91778E-007	1.86121E-007	-4.77898E-007	-3.07000E-001	3.81039E-004	7	..........a	-327.68
	35	0.36	-2.55423E-001	-3.04476E-001	-2.79949E-001	-2.86710E-007	1.87588E-007	-4.74298E-007	-3.05000E-001	3.79373E-004	7	..........a	-327.68
	36	0.37	-2.53404E-001	-3.02411E-001	-2.77908E-001	-2.86710E-007	1.89655E-007	-4.76365E-007	-3.03000E-001	3.62706E-004	7	..........a	-327.68
	37	0.38	-2.51401E-001	-3.00434E-001	-2.75918E-001	-2.83243E-007	1.89655E-007	-4.72898E-007	-3.01000E-001	3.72706E-004	7	..........a	-327.68
	38	0.39	-2.49344E-001	-2.98451E-001	-2.73898E-001	-2.83310E-007	1.90321E-007	-4.73631E-007	-2.99000E-001	3.42706E-004	7	..........a	-327.68
	39	0.4	-2.47401E-001	-2.96473E-001	-2.71937E-001	-2.81843E-007	1.93422E-007	-4.75265E-007	-2.97000E-001	3.87706E-004	7	..........a	-327.68
	40	0.41	-2.45379E-001	-2.94433E-001	-2.69906E-001	-2.77676E-007	1.92988E-007	-4.70664E-007	-2.95000E-001	3.71039E-004	7	..........a	-327.68
	41	0.42	-2.43373E-001	-2.92383E-001	-2.67878E-001	-2.77409E-007	1.95122E-007	-4.72531E-007	-2.93000E-001	4.14373E-004	7	..........a	-327.68
	42	0.43	-2.41279E-001	-2.90471E-001	-2.65875E-001	-2.74709E-007	1.95455E-007	-4.70164E-007	-2.91000E-001	3.71039E-004	7	..........a	-327.68
	43	0.44	-2.39433E-001	-2.88503E-001	-2.63968E-001	-2.72608E-007	1.94455E-007	-4.67064E-007	-2.89000E-001	3.91039E-004	7	..........a	-327.68
	44	0.45	-2.37404E-001	-2.86393E-001	-2.61898E-001	-2.69008E-007	1.93755E-007	-4.62763E-007	-2.87000E-001	3.41039E-004	7	..........a	-327.68
	45	0.46	-2.35376E-001	-2.84419E-001	-2.59898E-001	-2.65941E-007	1.95322E-007	-4.61263E-007	-2.85000E-001	3.59373E-004	7	..........a	-327.68
	46	0.47	-2.33301E-001	-2.82451E-001	-2.57876E-001	-2.65274E-007	1.95089E-007	-4.60363E-007	-2.83000E-001	3.61039E-004	7	..........a	-327.68
	47	0.48	-2.31403E-001	-2.80469E-001	-2.55936E-001	-2.63174E-007	1.95222E-007	-4.58396E-007	-2.81000E-001	3.91039E-004	7	..........a	-327.68
	48	0.49	-2.29399E-001	-2.78388E-001	-2.53893E-001	-2.61207E-007	1.99856E-007	-4.61063E-007	-2.79000E-001	3.94373E-004	7	..........a	-327.68
	49	0.5	-2.27404E-001	-2.76423E-001	-2.51913E-001	-2.61174E-007	1.98389E-007	-4.59563E-007	-2.77000E-001	3.62706E-004	7	..........a	-327.68
	50	0.51	-2.25303E-001	-2.74469E-001	-2.49886E-001	-2.54939E-007	1.98089E-007	-4.53028E-007	-2.75000E-001	3.71039E-004	7	..........a	-327.68
	51	0.52	-2.23406E-001	-2.72459E-001	-2.47933E-001	-2.56440E-007	1.98089E-007	-4.54529E-007	-2.73000E-001	3.94373E-004	7	..........a	-327.68
	52	0.53	-2.21386E-001	-2.70473E-001	-2.45929E-001	-2.53839E-007	1.98622E-007	-4.52462E-007	-2.71000E-001	3.61039E-004	7	..........a	-327.68
	53	0.54	-2.19359E-001	-2.68418E-001	-2.43888E-001	-2.51672E-007	2.02456E-007	-4.54129E-007	-2.69000E-001	3.67706E-004	7	..........a	-327.68
	54	0.55	-2.17333E-001	-2.66468E-001	-2.41900E-001	-2.51706E-007	2.02223E-007	-4.53929E-007	-2.67000E-001	3.79373E-004	7	..........a	-327.68
	55	0.56	-2.15424E-001	-2.64503E-001	-2.39963E-001	-2.49105E-007	2.03856E-007	-4.52962E-007	-2.65000E-001	4.09373E-004	7	..........a	-327.68
	56	0.57	-2.13383E-001	-2.62373E-001	-2.37878E-001	-2.47905E-007	2.02590E-007	-4.50495E-007	-2.63000E-001	3.72706E-004	7	..........a	-327.68
	57	0.58	-2.11401E-001	-2.60423E-001	-2.35912E-001	-2.47238E-007	2.06624E-007	-4.53862E-007	-2.61000E-001	3.72706E-004	7	..........a	-327.68
	58	0.59	-2.09314E-001	-2.58454E-001	-2.33884E-001	-2.47572E-007	2.05757E-007	-4.53328E-007	-2.59000E-001	3.67706E-004	7	..........a	-327.68
	59	0.6	-2.07401E-001	-2.56463E-001	-2.31932E-001	-2.44305E-007	2.05690E-007	-4.49995E-007	-2.57000E-001	3.84373E-004	7	..........a	-327.68
	60	0.61	-2.05384E-001	-2.54393E-001	-2.29888E-001	-2.42238E-007	2.06857E-007	-4.49095E-007	-2.55000E-001	3.59373E-004	7	..........a	-327.68
	61	0.62	-2.03383E-001	-2.52414E-001	-2.27898E-001	-2.40637E-007	2.07124E-007	-4.47761E-007	-2.53000E-001	3.76039E-004	7	..........a	-327.68
	62	0.63	-2.01344E-001	-2.50454E-001	-2.25899E-001	-2.42338E-007	2.08890E-007	-4.51228E-007	-2.51000E-001	3.74373E-004	7	..........a	-327.68
	63	0.64	-1.99406E-001	-2.48449E-001	-2.23928E-001	-2.38637E-007	2.12091E-007	-4.50728E-007	-2.49000E-001	3.72706E-004	7	..........a	-327.68
	64	0.65	-1.97359E-001	-2.46423E-001	-2.21891E-001	-2.39471E-007	2.12891E-007	-4.52362E-007	-2.47000E-001	3.77706E-004	7	..........a	-327.68
	65	0.66	-1.95411E-001	-2.44468E-001	-2.19939E-001	-2.38770E-007	2.16392E-007	-4.55162E-007	-2.45000E-001	3.66039E-004	7	..........a	-327.68
	66	0.67	-1.93364E-001	-2.42416E-001	-2.17890E-001	-2.38770E-007	2.17692E-007	-4.56462E-007	-2.43000E-001	3.66039E-004	7	..........a	-327.68
	67	0.68	-1.91414E-001	-2.40463E-001	-2.15938E-001	-2.38204E-007	2.18925E-007	-4.57129E-007	-2.41000E-001	3.89373E-004	7	..........a	-327.68
	68	0.69	-1.89416E-001	-2.38384E-001	-2.13900E-001	-2.40904E-007	2.21192E-007	-4.62096E-007	-2.39000E-001	3.47706E-004	7	..........a	-327.68
	69	0.7	-1.87401E-001	-2.36444E-001	-2.11923E-001	-2.38104E-007	2.20759E-007	-4.58863E-007	-2.37000E-001	3.62706E-004	7	..........a	-327.68
	70	0.71	-1.85364E-001	-2.34459E-001	-2.09912E-001	-2.38437E-007	2.23392E-007	-4.61830E-007	-2.35000E-001	3.77706E-004	7	..........a	-327.68
	71	0.72	-1.83383E-001	-2.32448E-001	-2.07915E-001	-2.36870E-007	2.23759E-007	-4.60629E-007	-2.33000E-001	3.51039E-004	7	..........a	-327.68
	72	0.73	-1.81391E-001	-2.30389E-001	-2.05890E-001	-2.36337E-007	2.26326E-007	-4.62663E-007	-2.31000E-001	3.56039E-004	7	..........a	-327.68
	73	0.74	-1.79383E-001	-2.28423E-001	-2.03903E-001	-2.38504E-007	2.28493E-007	-4.66997E-007	-2.29000E-001	3.92706E-004	7	..........a	-327.68
	74	0.75	-1.77318E-001	-2.26439E-001	-2.01878E-001	-2.36103E-007	2.28160E-007	-4.64263E-007	-2.27000E-001	3.51039E-004	7	..........a	-327.68
	75	0.76	-1.75414E-001	-2.24443E-001	-1.99928E-001	-2.35703E-007	2.30960E-007	-4.66664E-007	-2.25000E-001	3.72706E-004	7	..........a	-327.68
	76	0.77	-1.73424E-001	-2.22401E-001	-1.97913E-001	-2.35603E-007	2.29960E-007	-4.65563E-007	-2.23000E-001	3.71039E-004	7	..........a	-327.68
	77	0.78	-1.71419E-001	-2.20426E-001	-1.95923E-001	-2.33936E-007	2.32794E-007	-4.66730E-007	-2.21000E-001	3.57706E-004	7	..........a	-327.68
	78	0.79	-1.69369E-001	-2.18466E-001	-1.93918E-001	-2.33603E-007	2.36294E-007	-4.69897E-007	-2.19000E-001	3.71039E-004	7	..........a	-327.68
	79	0.8	-1.67403E-001	-2.16481E-001	-1.91942E-001	-2.36403E-007	2.35861E-007	-4.72264E-007	-2.17000E-001	3.56039E-004	7	..........a	-327.68
	80	0.81	-1.65431E-001	-2.14363E-001	-1.89897E-001	-2.33303E-007	2.38761E-007	-4.72064E-007	-2.15000E-001	3.76039E-004	7	..........a	-327.68
	81	0.82	-1.63364E-001	-2.12424E-001	-1.87894E-001	-2.35270E-007	2.41095E-007	-4.76365E-007	-2.13000E-001	3.41039E-004	7	..........a	-327.68
	82	0.83	-1.61334E-001	-2.10469E-001	-1.85902E-001	-2.34137E-007	2.43362E-007	-4.77498E-007	-2.11000E-001	3.92706E-004	7	..........a	-327.68
	83	0.84	-1.59431E-001	-2.08459E-001	-1.83945E-001	-2.34137E-007	2.45362E-007	-4.79499E-007	-2.09000E-001	3.92706E-004	7	..........a	-327.68
	84	0.85	-1.57406E-001	-2.06398E-001	-1.81902E-001	-2.33070E-007	2.43895E-007	-4.76965E-007	-2.07000E-001	3.67706E-004	7	..........a	-327.68
	85	0.86	-1.55386E-001	-2.04406E-001	-1.79896E-001	-2.31636E-007	2.46662E-007	-4.78299E-007	-2.05000E-001	3.74373E-004	7	..........a	-327.68
	86	0.87	-1.53338E-001	-2.02439E-001	-1.77888E-001	-2.31603E-007	2.45896E-007	-4.77498E-007	-2.03000E-001	3.67706E-004	7	..........a	-327.68
	87	0.88	-1.51419E-001	-2.00439E-001	-1.75929E-001	-2.30903E-007	2.46729E-007	-4.77632E-007	-2.01000E-001	3.72706E-004	7	..........a	-327.68
	88	0.89	-1.49419E-001	-1.98433E-001	-1.73926E-001	-2.30736E-007	2.51130E-007	-4.81866E-007	-1.99000E-001	3.82706E-004	7	..........a	-327.68
	89	0.9	-1.47418E-001	-1.96423E-001	-1.71920E-001	-2.32403E-007	2.49663E-007	-4.82066E-007	-1.97000E-001	3.59373E-004	7	..........a	-327.68
	90	0.91	-1.45344E-001	-1.94461E-001	-1.69903E-001	-2.30269E-007	2.52930E-007	-4.83199E-007	-1.95000E-001	3.76039E-004	7	..........a	-327.68
	91	0.92	-1.43403E-001	-1.92449E-001	-1.67926E-001	-2.31169E-007	2.54097E-007	-4.85266E-007	-1.93000E-001	3.86039E-004	7	..........a	-327.68
	92	0.93	-1.41381E-001	-1.90319E-001	-1.65850E-001	-2.29769E-007	2.55197E-007	-4.84966E-007	-1.91000E-001	3.86039E-004	7	..........a	-327.68
	93	0.94	-1.39374E-001	-1.88401E-001	-1.63888E-001	-2.30269E-007	2.57030E-007	-4.87300E-007	-1.89000E-001	3.54373E-004	7	..........a	-327.68
	94	0.95	-1.37308E-001	-1.86466E-001	-1.61887E-001	-2.27202E-007	2.57764E-007	-4.84966E-007	-1.87000E-001	3.71039E-004	7	..........a	-327.68
	95	0.96	-1.35429E-001	-1.84443E-001	-1.59936E-001	-2.26936E-007	2.59031E-007	-4.85966E-007	-1.85000E-001	3.66039E-004	7	..........a	-327.68
	96	0.97	-1.33421E-001	-1.82379E-001	-1.57900E-001	-2.29203E-007	2.57697E-007	-4.86900E-007	-1.83000E-001	3.86039E-004	7	..........a	-327.68
	97	0.98	-1.31403E-001	-1.80403E-001	-1.55903E-001	-2.27136E-007	2.60264E-007	-4.87400E-007	-1.81000E-001	3.59373E-004	7	..........a	-327.68
	98	0.99	-1.29321E-001	-1.78441E-001	-1.53881E-001	-2.27869E-007	2.62831E-007	-4.90700E-007	-1.79000E-001	3.61039E-004	7	..........a	-327.68
	99	1	-1.27438E-001	-1.76449E-001	-1.51943E-001	-2.27402E-007	2.63598E-007	-4.91000E-007	-1.77000E-001	3.52706E-004	7	..........a	-327.68
	100	1.01	-1.25428E-001	-1.74369E-001	-1.49898E-001	-2.24602E-007	2.62765E-007	-4.87366E-007	-1.75000E-001	4.06039E-004	7	..........a	-327.68
