EXPLAIN
TAG	SQUARE_WAVE
TITLE	LABEL	Square Wave Voltammetry	Test Identifier
DATE	LABEL	8/10/2020	Date
TIME	LABEL	16:20:08	Time
NOTES	NOTES	1	Notes...
	 STD1 1 fg/mL 08102
PSTAT	PSTAT	REF600-24079	Potentiostat
VINIT	QUANT	-3.50000E-001	Initial E (V)
VFINAL	QUANT	-1.50000E-001	Final E (V)
STEPSIZE	QUANT	2.00000E+000	Step Size (mV)
TIMERRES	QUANT	3.33340E-005	&Timer Resolution
FREQUENCY	QUANT	1.00000E+001	Frequency (Hz)
PULSESIZE	QUANT	2.50000E+001	Pulse Size E (mV)
PULSEON	QUANT	1.00000E-001	Pulse &Time (s)
NOISEREJECT	TOGGLE	F	Noise Rejection
AREA	QUANT	2.00000E-002	Sample Area (cm^2)
IMODE	SELECTOR	1	I/E Range Mode
IRANGE	QUANT	1.00000E-003	Max Current (mA)
EQDELAY	IQUANT	10	Equil. Time (s)
IRCOMP	SELECTOR	0	IRComp
PFCOR	QUANT	5.00000E+001	PF Corr. (ohm)
CYCLES	IQUANT	101	C&ycles (#)
ELECTRODETYPE	SELECTOR	0	Electrode Type
STRIPPING	TOGGLE	F	Used for Stripping
POLARITY	TOGGLE	F	Signal Polarity
LINEFREQ	IQUANT	60	Line Frequency (Hz)
INTPERIOD	QUANT	3.3334E-005	Integration Period (s)
SEQUENCER	TOGGLE	TRUE	Run as Sequence
PSTATMODEL	IQUANT	4	Pstat Model
PSTATSECTION	LABEL	REF600-24079	Pstat Section
PSTATSERIALNO	LABEL	24079	Pstat Serial Number
CTRLMODE	IQUANT	1	Control Mode
ELECTROMETER	IQUANT	0	RE=0 or CS=1
IESTAB	IQUANT	2	I/E Stability
CASPEED	IQUANT	6	Control Amp Speed
CONVENTION	IQUANT	1	Current Convention
ICHRANGE	IQUANT	2	Ich Range
ICHRANGEMODE	TOGGLE	F	Ich Auto Range
ICHOFFSETENABLE	TOGGLE	F	Ich Offset Enable
ICHOFFSET	QUANT	0	Ich Offset (V)
ICHFILTER	IQUANT	2	Ich Filter
VCHRANGE	IQUANT	2	Vch Range
VCHRANGEMODE	TOGGLE	F	Vch Auto Range
VCHOFFSETENABLE	TOGGLE	F	Vch Offset Enable
VCHOFFSET	QUANT	0	Vch Offset (V)
VCHFILTER	IQUANT	2	Vch Filter
ACHRANGE	IQUANT	2	Ach Range
ACHOFFSETENABLE	TOGGLE	F	Ach Offset Enable
ACHOFFSET	QUANT	0	Ach Offset (V)
ACHFILTER	IQUANT	1	Ach Filter
IERANGELOWERLIMIT	IQUANT	1	I/E Range Lower Limit
IERANGEMODE	TOGGLE	F	I/E AutoRange
IERANGE	IQUANT	6	I/E Range
POSFEEDENABLE	TOGGLE	F	Positive Feedback IR Comp
POSFEEDRESISTANCE	QUANT	0	Positive Feedback Resistance (ohm)
ACHSELECT	IQUANT	0	Ach Select
SENSECABLEID	IQUANT	13	Sense Cable ID
PWRCABLEID	IQUANT	13	Power Cable ID
DCCALDATE	LABEL	6/30/2020	DC Calibration Date
ACCALDATE	LABEL	6/30/2020	AC Calibration Date
THERMOSELECT	IQUANT	1	Thermo Select
FRAMEWORKVERSION	LABEL	7.8.2	Framework Version
INSTRUMENTVERSION	LABEL	4.40	Instrument Version
CURVE	TABLE	101
	Pt	T	Vfwd	Vrev	Vstep	Ifwd	Irev	Idif	Sig	Ach	IERange	Over	Temp
	#	s	V	V	V	A	A	A	V	V	#	bits	deg C
	0	0.1	-3.24892E-001	-3.74890E-001	-3.49891E-001	-1.01442E-007	-1.78740E-007	7.72988E-008	-3.75000E-001	4.10206E-004	6	..........a	-327.68
	1	0.2	-3.22861E-001	-3.72900E-001	-3.47880E-001	-8.86164E-008	-1.72379E-007	8.37623E-008	-3.73000E-001	4.08873E-004	6	..........a	-327.68
	2	0.3	-3.20890E-001	-3.70777E-001	-3.45833E-001	-8.50176E-008	-1.68279E-007	8.32619E-008	-3.71000E-001	4.00206E-004	6	..........a	-327.68
	3	0.4	-3.18868E-001	-3.68934E-001	-3.43901E-001	-8.25906E-008	-1.65107E-007	8.25168E-008	-3.69000E-001	3.97373E-004	6	..........a	-327.68
	4	0.5	-3.16832E-001	-3.66866E-001	-3.41849E-001	-8.04290E-008	-1.62156E-007	8.17274E-008	-3.67000E-001	4.13539E-004	6	..........a	-327.68
	5	0.6	-3.14848E-001	-3.64878E-001	-3.39863E-001	-7.83827E-008	-1.59042E-007	8.06593E-008	-3.65000E-001	4.23873E-004	6	..........a	-327.68
	6	0.7	-3.12883E-001	-3.62797E-001	-3.37840E-001	-7.64871E-008	-1.56436E-007	7.99488E-008	-3.63000E-001	4.33373E-004	6	..........a	-327.68
	7	0.8	-3.10845E-001	-3.60876E-001	-3.35860E-001	-7.46106E-008	-1.54001E-007	7.93901E-008	-3.61000E-001	4.25873E-004	6	..........a	-327.68
	8	0.9	-3.08845E-001	-3.58861E-001	-3.33853E-001	-7.26663E-008	-1.51476E-007	7.88094E-008	-3.59000E-001	4.22873E-004	6	..........a	-327.68
	9	1	-3.06815E-001	-3.56897E-001	-3.31856E-001	-7.09504E-008	-1.48870E-007	7.79196E-008	-3.57000E-001	4.07539E-004	6	..........a	-327.68
	10	1.1	-3.04896E-001	-3.54835E-001	-3.29866E-001	-6.93159E-008	-1.46692E-007	7.73765E-008	-3.55000E-001	4.10373E-004	6	..........a	-327.68
	11	1.2	-3.02878E-001	-3.52904E-001	-3.27891E-001	-6.74007E-008	-1.44052E-007	7.66514E-008	-3.53000E-001	4.09873E-004	6	..........a	-327.68
	12	1.3	-3.00882E-001	-3.50886E-001	-3.25884E-001	-6.56701E-008	-1.41722E-007	7.60523E-008	-3.51000E-001	4.03539E-004	6	..........a	-327.68
	13	1.4	-2.98852E-001	-3.48881E-001	-3.23866E-001	-6.42066E-008	-1.39546E-007	7.53396E-008	-3.49000E-001	4.08539E-004	6	..........a	-327.68
	14	1.5	-2.96882E-001	-3.46882E-001	-3.21882E-001	-6.23347E-008	-1.37314E-007	7.49795E-008	-3.47000E-001	4.09706E-004	6	..........a	-327.68
	15	1.6	-2.94857E-001	-3.44930E-001	-3.19894E-001	-6.05678E-008	-1.34923E-007	7.43548E-008	-3.45000E-001	4.11039E-004	6	..........a	-327.68
	16	1.7	-2.92777E-001	-3.42855E-001	-3.17816E-001	-5.88739E-008	-1.32987E-007	7.41131E-008	-3.43000E-001	3.97539E-004	6	..........a	-327.68
	17	1.8	-2.90787E-001	-3.40886E-001	-3.15836E-001	-5.74014E-008	-1.30760E-007	7.33590E-008	-3.41000E-001	4.06539E-004	6	..........a	-327.68
	18	1.9	-2.88880E-001	-3.38820E-001	-3.13850E-001	-5.57775E-008	-1.28713E-007	7.29356E-008	-3.39000E-001	3.99039E-004	6	..........a	-327.68
	19	2	-2.86842E-001	-3.36873E-001	-3.11857E-001	-5.40370E-008	-1.26849E-007	7.28119E-008	-3.37000E-001	3.93539E-004	6	..........a	-327.68
	20	2.1	-2.84843E-001	-3.34862E-001	-3.09852E-001	-5.22481E-008	-1.24915E-007	7.26672E-008	-3.35000E-001	4.12706E-004	6	..........a	-327.68
	21	2.2	-2.82798E-001	-3.32859E-001	-3.07829E-001	-5.07415E-008	-1.23122E-007	7.23809E-008	-3.33000E-001	4.04539E-004	6	..........a	-327.68
	22	2.3	-2.80896E-001	-3.30818E-001	-3.05857E-001	-4.92437E-008	-1.21258E-007	7.20145E-008	-3.31000E-001	4.17039E-004	6	..........a	-327.68
	23	2.4	-2.78862E-001	-3.28886E-001	-3.03874E-001	-4.77312E-008	-1.19367E-007	7.16361E-008	-3.29000E-001	4.23039E-004	6	..........a	-327.68
	24	2.5	-2.76870E-001	-3.26877E-001	-3.01874E-001	-4.60103E-008	-1.17769E-007	7.17584E-008	-3.27000E-001	4.07873E-004	6	..........a	-327.68
	25	2.6	-2.74840E-001	-3.24874E-001	-2.99857E-001	-4.45428E-008	-1.16057E-007	7.15141E-008	-3.25000E-001	4.10373E-004	6	..........a	-327.68
	26	2.7	-2.72878E-001	-3.22857E-001	-2.97868E-001	-4.30789E-008	-1.14435E-007	7.13557E-008	-3.23000E-001	4.02873E-004	6	..........a	-327.68
	27	2.8	-2.70886E-001	-3.20882E-001	-2.95884E-001	-4.12703E-008	-1.12787E-007	7.15168E-008	-3.21000E-001	4.20206E-004	6	..........a	-327.68
	28	2.9	-2.68889E-001	-3.18861E-001	-2.93875E-001	-3.99548E-008	-1.11096E-007	7.11407E-008	-3.19000E-001	4.03039E-004	6	..........a	-327.68
	29	3	-2.66782E-001	-3.16846E-001	-2.91814E-001	-3.83016E-008	-1.09659E-007	7.13571E-008	-3.17000E-001	4.04039E-004	6	..........a	-327.68
	30	3.1	-2.64889E-001	-3.14840E-001	-2.89864E-001	-3.68738E-008	-1.08152E-007	7.12777E-008	-3.15000E-001	4.02206E-004	6	..........a	-327.68
	31	3.2	-2.62893E-001	-3.12874E-001	-2.87884E-001	-3.55986E-008	-1.06637E-007	7.10384E-008	-3.13000E-001	4.12039E-004	6	..........a	-327.68
	32	3.3	-2.60797E-001	-3.10857E-001	-2.85827E-001	-3.36887E-008	-1.05232E-007	7.15431E-008	-3.11000E-001	4.21873E-004	6	..........a	-327.68
	33	3.4	-2.58798E-001	-3.08858E-001	-2.83828E-001	-3.25015E-008	-1.03914E-007	7.14121E-008	-3.09000E-001	4.16373E-004	6	..........a	-327.68
	34	3.5	-2.56856E-001	-3.06815E-001	-2.81836E-001	-3.13274E-008	-1.02557E-007	7.12297E-008	-3.07000E-001	3.94039E-004	6	..........a	-327.68
	35	3.6	-2.54902E-001	-3.04905E-001	-2.79904E-001	-2.98455E-008	-1.01372E-007	7.15261E-008	-3.05000E-001	4.01373E-004	6	..........a	-327.68
	36	3.7	-2.52880E-001	-3.02901E-001	-2.77891E-001	-2.86011E-008	-1.00149E-007	7.15481E-008	-3.03000E-001	3.91206E-004	6	..........a	-327.68
	37	3.8	-2.50836E-001	-3.00913E-001	-2.75874E-001	-2.71759E-008	-9.87980E-008	7.16221E-008	-3.01000E-001	4.05706E-004	6	..........a	-327.68
	38	3.9	-2.48889E-001	-2.98863E-001	-2.73876E-001	-2.57940E-008	-9.75995E-008	7.18055E-008	-2.99000E-001	3.94706E-004	6	..........a	-327.68
	39	4	-2.46875E-001	-2.96905E-001	-2.71890E-001	-2.48792E-008	-9.62770E-008	7.13977E-008	-2.97000E-001	3.99206E-004	6	..........a	-327.68
	40	4.1	-2.44890E-001	-2.94898E-001	-2.69894E-001	-2.37484E-008	-9.50998E-008	7.13514E-008	-2.95000E-001	3.99873E-004	6	..........a	-327.68
	41	4.2	-2.42778E-001	-2.92805E-001	-2.67791E-001	-2.25906E-008	-9.39124E-008	7.13218E-008	-2.93000E-001	4.04873E-004	6	..........a	-327.68
	42	4.3	-2.40899E-001	-2.90787E-001	-2.65843E-001	-2.15392E-008	-9.25185E-008	7.09794E-008	-2.91000E-001	4.02873E-004	6	..........a	-327.68
	43	4.4	-2.38871E-001	-2.88926E-001	-2.63899E-001	-2.06377E-008	-9.15674E-008	7.09297E-008	-2.89000E-001	3.98206E-004	6	..........a	-327.68
	44	4.5	-2.36864E-001	-2.86871E-001	-2.61868E-001	-1.94799E-008	-9.01576E-008	7.06777E-008	-2.87000E-001	3.97706E-004	6	..........a	-327.68
	45	4.6	-2.34795E-001	-2.84803E-001	-2.59799E-001	-1.88365E-008	-8.88047E-008	6.99682E-008	-2.85000E-001	4.11873E-004	6	..........a	-327.68
	46	4.7	-2.32850E-001	-2.82803E-001	-2.57827E-001	-1.77403E-008	-8.77382E-008	6.99979E-008	-2.83000E-001	3.96706E-004	6	..........a	-327.68
	47	4.8	-2.30850E-001	-2.80908E-001	-2.55879E-001	-1.68522E-008	-8.64891E-008	6.96369E-008	-2.81000E-001	3.96539E-004	6	..........a	-327.68
	48	4.9	-2.28819E-001	-2.78882E-001	-2.53851E-001	-1.61728E-008	-8.53543E-008	6.91815E-008	-2.79000E-001	3.86373E-004	6	..........a	-327.68
	49	5	-2.26808E-001	-2.76881E-001	-2.51845E-001	-1.53117E-008	-8.38848E-008	6.85731E-008	-2.77000E-001	4.02539E-004	6	..........a	-327.68
	50	5.1	-2.24871E-001	-2.74845E-001	-2.49858E-001	-1.45619E-008	-8.28596E-008	6.82977E-008	-2.75000E-001	4.05539E-004	6	..........a	-327.68
	51	5.2	-2.22874E-001	-2.72898E-001	-2.47886E-001	-1.36912E-008	-8.15015E-008	6.78103E-008	-2.73000E-001	4.02706E-004	6	..........a	-327.68
	52	5.3	-2.20875E-001	-2.70874E-001	-2.45874E-001	-1.30371E-008	-8.01680E-008	6.71309E-008	-2.71000E-001	3.90206E-004	6	..........a	-327.68
	53	5.4	-2.18858E-001	-2.68875E-001	-2.43866E-001	-1.23030E-008	-7.87491E-008	6.64461E-008	-2.69000E-001	4.08706E-004	6	..........a	-327.68
	54	5.5	-2.16919E-001	-2.66778E-001	-2.41848E-001	-1.16876E-008	-7.73769E-008	6.56894E-008	-2.67000E-001	4.09373E-004	6	..........a	-327.68
	55	5.6	-2.14845E-001	-2.64892E-001	-2.39869E-001	-1.09995E-008	-7.62085E-008	6.52090E-008	-2.65000E-001	4.20873E-004	6	..........a	-327.68
	56	5.7	-2.12843E-001	-2.62880E-001	-2.37861E-001	-1.01374E-008	-7.50140E-008	6.48766E-008	-2.63000E-001	4.24373E-004	6	..........a	-327.68
	57	5.8	-2.10809E-001	-2.60849E-001	-2.35829E-001	-9.51763E-009	-7.36975E-008	6.41798E-008	-2.61000E-001	4.15706E-004	6	..........a	-327.68
	58	5.9	-2.08852E-001	-2.58803E-001	-2.33828E-001	-9.09691E-009	-7.22316E-008	6.31347E-008	-2.59000E-001	4.18539E-004	6	..........a	-327.68
	59	6	-2.06858E-001	-2.56870E-001	-2.31864E-001	-8.22280E-009	-7.09725E-008	6.27497E-008	-2.57000E-001	4.02539E-004	6	..........a	-327.68
	60	6.1	-2.04814E-001	-2.54868E-001	-2.29841E-001	-7.78007E-009	-6.99640E-008	6.21839E-008	-2.55000E-001	4.21373E-004	6	..........a	-327.68
	61	6.2	-2.02814E-001	-2.52866E-001	-2.27840E-001	-7.12299E-009	-6.85238E-008	6.14008E-008	-2.53000E-001	4.22873E-004	6	..........a	-327.68
	62	6.3	-2.00872E-001	-2.50838E-001	-2.25855E-001	-6.31689E-009	-6.70816E-008	6.07647E-008	-2.51000E-001	4.17706E-004	6	..........a	-327.68
	63	6.4	-1.98876E-001	-2.48871E-001	-2.23873E-001	-5.72981E-009	-6.58355E-008	6.01056E-008	-2.49000E-001	4.16706E-004	6	..........a	-327.68
	64	6.5	-1.96865E-001	-2.46854E-001	-2.21860E-001	-5.23775E-009	-6.43629E-008	5.91252E-008	-2.47000E-001	4.05373E-004	6	..........a	-327.68
	65	6.6	-1.94850E-001	-2.44853E-001	-2.19852E-001	-4.43598E-009	-6.33395E-008	5.89035E-008	-2.45000E-001	4.00539E-004	6	..........a	-327.68
	66	6.7	-1.92886E-001	-2.42773E-001	-2.17829E-001	-3.80657E-009	-6.23820E-008	5.85755E-008	-2.43000E-001	4.09206E-004	6	..........a	-327.68
	67	6.8	-1.90868E-001	-2.40908E-001	-2.15888E-001	-3.30150E-009	-6.10815E-008	5.77800E-008	-2.41000E-001	4.09706E-004	6	..........a	-327.68
	68	6.9	-1.88785E-001	-2.38831E-001	-2.13808E-001	-2.49340E-009	-5.99177E-008	5.74243E-008	-2.39000E-001	4.27039E-004	6	..........a	-327.68
	69	7	-1.86799E-001	-2.36850E-001	-2.11825E-001	-1.94766E-009	-5.90423E-008	5.70946E-008	-2.37000E-001	4.18539E-004	6	..........a	-327.68
	70	7.1	-1.84877E-001	-2.34791E-001	-2.09834E-001	-1.32359E-009	-5.76664E-008	5.63428E-008	-2.35000E-001	4.01539E-004	6	..........a	-327.68
	71	7.2	-1.82842E-001	-2.32846E-001	-2.07844E-001	-7.29176E-010	-5.65846E-008	5.58554E-008	-2.33000E-001	4.08873E-004	6	..........a	-327.68
	72	7.3	-1.80839E-001	-2.30839E-001	-2.05839E-001	-1.34100E-010	-5.57558E-008	5.56217E-008	-2.31000E-001	4.12539E-004	6	..........a	-327.68
	73	7.4	-1.78800E-001	-2.28835E-001	-2.03817E-001	6.37998E-010	-5.45590E-008	5.51970E-008	-2.29000E-001	4.10039E-004	6	..........a	-327.68
	74	7.5	-1.76869E-001	-2.26816E-001	-2.01842E-001	9.62039E-010	-5.35659E-008	5.45279E-008	-2.27000E-001	4.04373E-004	6	..........a	-327.68
	75	7.6	-1.74886E-001	-2.24872E-001	-1.99879E-001	1.64713E-009	-5.24714E-008	5.41186E-008	-2.25000E-001	4.09373E-004	6	..........a	-327.68
	76	7.7	-1.72866E-001	-2.22868E-001	-1.97867E-001	2.28121E-009	-5.14450E-008	5.37262E-008	-2.23000E-001	4.09373E-004	6	..........a	-327.68
	77	7.8	-1.70836E-001	-2.20878E-001	-1.95857E-001	2.86095E-009	-5.05459E-008	5.34068E-008	-2.21000E-001	4.02873E-004	6	..........a	-327.68
	78	7.9	-1.68882E-001	-2.18871E-001	-1.93876E-001	3.33567E-009	-4.98904E-008	5.32261E-008	-2.19000E-001	3.86539E-004	6	..........a	-327.68
	79	8	-1.66893E-001	-2.16926E-001	-1.91910E-001	3.78106E-009	-4.88523E-008	5.26334E-008	-2.17000E-001	3.77373E-004	6	..........a	-327.68
	80	8.1	-1.64749E-001	-2.14838E-001	-1.89793E-001	4.39548E-009	-4.81222E-008	5.25177E-008	-2.15000E-001	3.82373E-004	6	..........a	-327.68
	81	8.2	-1.62780E-001	-2.12886E-001	-1.87833E-001	4.84953E-009	-4.71644E-008	5.20140E-008	-2.13000E-001	3.96873E-004	6	..........a	-327.68
	82	8.3	-1.60922E-001	-2.10815E-001	-1.85868E-001	5.47328E-009	-4.62643E-008	5.17376E-008	-2.11000E-001	3.77206E-004	6	..........a	-327.68
	83	8.4	-1.58862E-001	-2.08861E-001	-1.83861E-001	6.17070E-009	-4.53629E-008	5.15336E-008	-2.09000E-001	3.94206E-004	6	..........a	-327.68
	84	8.5	-1.56840E-001	-2.06852E-001	-1.81846E-001	6.39140E-009	-4.47198E-008	5.11112E-008	-2.07000E-001	3.83039E-004	6	..........a	-327.68
	85	8.6	-1.54795E-001	-2.04831E-001	-1.79813E-001	6.96880E-009	-4.38707E-008	5.08395E-008	-2.05000E-001	3.83539E-004	6	..........a	-327.68
	86	8.7	-1.52912E-001	-2.02816E-001	-1.77864E-001	7.32085E-009	-4.33259E-008	5.06468E-008	-2.03000E-001	3.80206E-004	6	..........a	-327.68
	87	8.8	-1.50888E-001	-2.00895E-001	-1.75892E-001	8.15995E-009	-4.25018E-008	5.06618E-008	-2.01000E-001	4.00539E-004	6	..........a	-327.68
	88	8.9	-1.48848E-001	-1.98874E-001	-1.73861E-001	8.73503E-009	-4.17751E-008	5.05101E-008	-1.99000E-001	3.77373E-004	6	..........a	-327.68
	89	9	-1.46835E-001	-1.96873E-001	-1.71854E-001	9.13508E-009	-4.08469E-008	4.99820E-008	-1.97000E-001	3.87539E-004	6	..........a	-327.68
	90	9.1	-1.44876E-001	-1.94847E-001	-1.69861E-001	9.54313E-009	-4.03392E-008	4.98823E-008	-1.95000E-001	3.81206E-004	6	..........a	-327.68
	91	9.2	-1.42900E-001	-1.92885E-001	-1.67892E-001	1.01842E-008	-3.96145E-008	4.97987E-008	-1.93000E-001	3.80039E-004	6	..........a	-327.68
	92	9.3	-1.40882E-001	-1.90862E-001	-1.65872E-001	1.07673E-008	-3.87523E-008	4.95196E-008	-1.91000E-001	3.74039E-004	6	..........a	-327.68
	93	9.4	-1.38767E-001	-1.88746E-001	-1.63756E-001	1.11173E-008	-3.81833E-008	4.93006E-008	-1.89000E-001	3.87539E-004	6	..........a	-327.68
	94	9.5	-1.36885E-001	-1.86801E-001	-1.61843E-001	1.15314E-008	-3.76909E-008	4.92223E-008	-1.87000E-001	3.89706E-004	6	..........a	-327.68
	95	9.6	-1.34915E-001	-1.84885E-001	-1.59900E-001	1.20571E-008	-3.70618E-008	4.91189E-008	-1.85000E-001	3.79706E-004	6	..........a	-327.68
	96	9.7	-1.32807E-001	-1.82857E-001	-1.57832E-001	1.23858E-008	-3.65054E-008	4.88912E-008	-1.83000E-001	4.02873E-004	6	..........a	-327.68
	97	9.8	-1.30790E-001	-1.80816E-001	-1.55803E-001	1.29019E-008	-3.59767E-008	4.88785E-008	-1.81000E-001	4.03706E-004	6	..........a	-327.68
	98	9.9	-1.28846E-001	-1.78807E-001	-1.53826E-001	1.34510E-008	-3.50185E-008	4.84695E-008	-1.79000E-001	3.79206E-004	6	..........a	-327.68
	99	10	-1.26897E-001	-1.76868E-001	-1.51883E-001	1.39310E-008	-3.44028E-008	4.83338E-008	-1.77000E-001	3.85706E-004	6	..........a	-327.68
	100	10.1	-1.24823E-001	-1.74875E-001	-1.49849E-001	1.42641E-008	-3.38847E-008	4.81488E-008	-1.75000E-001	3.79039E-004	6	..........a	-327.68
