EXPLAIN
TAG	SQUARE_WAVE
TITLE	LABEL	Square Wave Voltammetry	Test Identifier
DATE	LABEL	8/10/2020	Date
TIME	LABEL	14:42:30	Time
NOTES	NOTES	1	Notes...
	
PSTAT	PSTAT	REF600-24079	Potentiostat
VINIT	QUANT	-3.50000E-001	Initial E (V)
VFINAL	QUANT	-1.50000E-001	Final E (V)
STEPSIZE	QUANT	2.00000E+000	Step Size (mV)
TIMERRES	QUANT	3.33340E-005	&Timer Resolution
FREQUENCY	QUANT	5.00000E+002	Frequency (Hz)
PULSESIZE	QUANT	2.50000E+001	Pulse Size E (mV)
PULSEON	QUANT	2.00000E-003	Pulse &Time (s)
NOISEREJECT	TOGGLE	F	Noise Rejection
AREA	QUANT	2.00000E-002	Sample Area (cm^2)
IMODE	SELECTOR	1	I/E Range Mode
IRANGE	QUANT	1.00000E-002	Max Current (mA)
EQDELAY	IQUANT	10	Equil. Time (s)
IRCOMP	SELECTOR	0	IRComp
PFCOR	QUANT	5.00000E+001	PF Corr. (ohm)
CYCLES	IQUANT	101	C&ycles (#)
ELECTRODETYPE	SELECTOR	0	Electrode Type
STRIPPING	TOGGLE	F	Used for Stripping
POLARITY	TOGGLE	F	Signal Polarity
LINEFREQ	IQUANT	60	Line Frequency (Hz)
INTPERIOD	QUANT	3.3334E-005	Integration Period (s)
SEQUENCER	TOGGLE	TRUE	Run as Sequence
PSTATMODEL	IQUANT	4	Pstat Model
PSTATSECTION	LABEL	REF600-24079	Pstat Section
PSTATSERIALNO	LABEL	24079	Pstat Serial Number
CTRLMODE	IQUANT	1	Control Mode
ELECTROMETER	IQUANT	0	RE=0 or CS=1
IESTAB	IQUANT	2	I/E Stability
CASPEED	IQUANT	6	Control Amp Speed
CONVENTION	IQUANT	1	Current Convention
ICHRANGE	IQUANT	2	Ich Range
ICHRANGEMODE	TOGGLE	F	Ich Auto Range
ICHOFFSETENABLE	TOGGLE	F	Ich Offset Enable
ICHOFFSET	QUANT	0	Ich Offset (V)
ICHFILTER	IQUANT	1	Ich Filter
VCHRANGE	IQUANT	2	Vch Range
VCHRANGEMODE	TOGGLE	F	Vch Auto Range
VCHOFFSETENABLE	TOGGLE	F	Vch Offset Enable
VCHOFFSET	QUANT	0	Vch Offset (V)
VCHFILTER	IQUANT	1	Vch Filter
ACHRANGE	IQUANT	2	Ach Range
ACHOFFSETENABLE	TOGGLE	F	Ach Offset Enable
ACHOFFSET	QUANT	0	Ach Offset (V)
ACHFILTER	IQUANT	1	Ach Filter
IERANGELOWERLIMIT	IQUANT	1	I/E Range Lower Limit
IERANGEMODE	TOGGLE	F	I/E AutoRange
IERANGE	IQUANT	7	I/E Range
POSFEEDENABLE	TOGGLE	F	Positive Feedback IR Comp
POSFEEDRESISTANCE	QUANT	0	Positive Feedback Resistance (ohm)
ACHSELECT	IQUANT	0	Ach Select
SENSECABLEID	IQUANT	13	Sense Cable ID
PWRCABLEID	IQUANT	13	Power Cable ID
DCCALDATE	LABEL	6/30/2020	DC Calibration Date
ACCALDATE	LABEL	6/30/2020	AC Calibration Date
THERMOSELECT	IQUANT	1	Thermo Select
FRAMEWORKVERSION	LABEL	7.8.2	Framework Version
INSTRUMENTVERSION	LABEL	4.40	Instrument Version
CURVE	TABLE	101
	Pt	T	Vfwd	Vrev	Vstep	Ifwd	Irev	Idif	Sig	Ach	IERange	Over	Temp
	#	s	V	V	V	A	A	A	V	V	#	bits	deg C
	0	0.002	-3.23141E-001	-3.61874E-001	-3.42508E-001	5.74611E-008	-1.14566E-005	1.15141E-005	-3.75000E-001	4.41039E-004	7	..........a	-327.68
	1	0.004	-3.38158E-001	-3.57058E-001	-3.47607E-001	8.32359E-006	-7.12218E-006	1.54458E-005	-3.73000E-001	3.41039E-004	7	..........a	-327.68
	2	0.006	-3.32924E-001	-3.54774E-001	-3.43849E-001	8.10456E-006	-7.76894E-006	1.58735E-005	-3.71000E-001	3.66039E-004	7	..........a	-327.68
	3	0.008	-3.31424E-001	-3.52858E-001	-3.42141E-001	8.02721E-006	-7.66442E-006	1.56916E-005	-3.69000E-001	3.41039E-004	7	..........a	-327.68
	4	0.01	-3.29358E-001	-3.50857E-001	-3.40108E-001	8.07822E-006	-7.65576E-006	1.57340E-005	-3.67000E-001	2.82706E-004	7	..........a	-327.68
	5	0.012	-3.27324E-001	-3.48908E-001	-3.38116E-001	8.08639E-006	-7.64159E-006	1.57280E-005	-3.65000E-001	3.66039E-004	7	..........a	-327.68
	6	0.014	-3.25357E-001	-3.46874E-001	-3.36116E-001	8.09889E-006	-7.63225E-006	1.57311E-005	-3.63000E-001	3.24373E-004	7	..........a	-327.68
	7	0.016	-3.23324E-001	-3.44899E-001	-3.34112E-001	8.10106E-006	-7.62909E-006	1.57301E-005	-3.61000E-001	3.82706E-004	7	..........a	-327.68
	8	0.018	-3.21341E-001	-3.42858E-001	-3.32099E-001	8.11022E-006	-7.62009E-006	1.57303E-005	-3.59000E-001	3.91039E-004	7	..........a	-327.68
	9	0.02	-3.19274E-001	-3.40891E-001	-3.30083E-001	8.11306E-006	-7.61508E-006	1.57281E-005	-3.57000E-001	3.82706E-004	7	..........a	-327.68
	10	0.022	-3.17358E-001	-3.38791E-001	-3.28074E-001	8.11589E-006	-7.61225E-006	1.57281E-005	-3.55000E-001	3.07706E-004	7	..........a	-327.68
	11	0.024	-3.15358E-001	-3.36841E-001	-3.26099E-001	8.11856E-006	-7.60825E-006	1.57268E-005	-3.53000E-001	3.57706E-004	7	..........a	-327.68
	12	0.026	-3.13307E-001	-3.34891E-001	-3.24099E-001	8.12489E-006	-7.60042E-006	1.57253E-005	-3.51000E-001	3.49373E-004	7	..........a	-327.68
	13	0.028	-3.11357E-001	-3.32924E-001	-3.22141E-001	8.13039E-006	-7.59558E-006	1.57260E-005	-3.49000E-001	2.99373E-004	7	..........a	-327.68
	14	0.03	-3.09341E-001	-3.30907E-001	-3.20124E-001	8.12723E-006	-7.59792E-006	1.57251E-005	-3.47000E-001	2.99373E-004	7	..........a	-327.68
	15	0.032	-3.07324E-001	-3.28841E-001	-3.18083E-001	8.13323E-006	-7.59525E-006	1.57285E-005	-3.45000E-001	3.74373E-004	7	..........a	-327.68
	16	0.034	-3.05407E-001	-3.26824E-001	-3.16116E-001	8.13273E-006	-7.58791E-006	1.57206E-005	-3.43000E-001	3.57706E-004	7	..........a	-327.68
	17	0.036	-3.03308E-001	-3.24874E-001	-3.14091E-001	8.13990E-006	-7.58725E-006	1.57271E-005	-3.41000E-001	3.07706E-004	7	..........a	-327.68
	18	0.038	-3.01324E-001	-3.22916E-001	-3.12120E-001	8.13806E-006	-7.58425E-006	1.57223E-005	-3.39000E-001	3.32706E-004	7	..........a	-327.68
	19	0.04	-2.99391E-001	-3.20824E-001	-3.10108E-001	8.14340E-006	-7.58041E-006	1.57238E-005	-3.37000E-001	3.49373E-004	7	..........a	-327.68
	20	0.042	-2.97324E-001	-3.18857E-001	-3.08091E-001	8.14256E-006	-7.58008E-006	1.57226E-005	-3.35000E-001	3.24373E-004	7	..........a	-327.68
	21	0.044	-2.95291E-001	-3.16941E-001	-3.06116E-001	8.14306E-006	-7.57675E-006	1.57198E-005	-3.33000E-001	3.49373E-004	7	..........a	-327.68
	22	0.046	-2.93349E-001	-3.14841E-001	-3.04095E-001	8.14540E-006	-7.57758E-006	1.57230E-005	-3.31000E-001	3.41039E-004	7	..........a	-327.68
	23	0.048	-2.91358E-001	-3.12874E-001	-3.02116E-001	8.14540E-006	-7.57275E-006	1.57181E-005	-3.29000E-001	3.49373E-004	7	..........a	-327.68
	24	0.05	-2.89341E-001	-3.10908E-001	-3.00124E-001	8.14990E-006	-7.56941E-006	1.57193E-005	-3.27000E-001	3.49373E-004	7	..........a	-327.68
	25	0.052	-2.87308E-001	-3.08924E-001	-2.98116E-001	8.15256E-006	-7.56858E-006	1.57211E-005	-3.25000E-001	3.41039E-004	7	..........a	-327.68
	26	0.054	-2.85274E-001	-3.06908E-001	-2.96091E-001	8.15173E-006	-7.56458E-006	1.57163E-005	-3.23000E-001	3.16039E-004	7	..........a	-327.68
	27	0.056	-2.83358E-001	-3.04924E-001	-2.94141E-001	8.15306E-006	-7.56274E-006	1.57158E-005	-3.21000E-001	3.24373E-004	7	..........a	-327.68
	28	0.058	-2.81374E-001	-3.02958E-001	-2.92166E-001	8.15673E-006	-7.56124E-006	1.57180E-005	-3.19000E-001	3.24373E-004	7	..........a	-327.68
	29	0.06	-2.79357E-001	-3.00924E-001	-2.90141E-001	8.15406E-006	-7.56258E-006	1.57166E-005	-3.17000E-001	3.82706E-004	7	..........a	-327.68
	30	0.062	-2.77341E-001	-2.98891E-001	-2.88116E-001	8.15640E-006	-7.55391E-006	1.57103E-005	-3.15000E-001	3.57706E-004	7	..........a	-327.68
	31	0.064	-2.75291E-001	-2.96941E-001	-2.86116E-001	8.16006E-006	-7.55408E-006	1.57141E-005	-3.13000E-001	3.16039E-004	7	..........a	-327.68
	32	0.066	-2.73299E-001	-2.94924E-001	-2.84112E-001	8.16157E-006	-7.55191E-006	1.57135E-005	-3.11000E-001	3.74373E-004	7	..........a	-327.68
	33	0.068	-2.71333E-001	-2.92916E-001	-2.82124E-001	8.16290E-006	-7.55091E-006	1.57138E-005	-3.09000E-001	3.57706E-004	7	..........a	-327.68
	34	0.07	-2.69307E-001	-2.90874E-001	-2.80091E-001	8.16023E-006	-7.54224E-006	1.57025E-005	-3.07000E-001	3.32706E-004	7	..........a	-327.68
	35	0.072	-2.67499E-001	-2.89099E-001	-2.78299E-001	8.16523E-006	-7.54708E-006	1.57123E-005	-3.05000E-001	3.91039E-004	7	..........a	-327.68
	36	0.074	-2.65291E-001	-2.86974E-001	-2.76133E-001	8.16490E-006	-7.54524E-006	1.57101E-005	-3.03000E-001	3.49373E-004	7	..........a	-327.68
	37	0.076	-2.63291E-001	-2.84891E-001	-2.74091E-001	8.16423E-006	-7.53741E-006	1.57016E-005	-3.01000E-001	2.91039E-004	7	..........a	-327.68
	38	0.078	-2.61274E-001	-2.82932E-001	-2.72103E-001	8.16990E-006	-7.53824E-006	1.57081E-005	-2.99000E-001	2.99373E-004	7	..........a	-327.68
	39	0.08	-2.59291E-001	-2.80807E-001	-2.70049E-001	8.16807E-006	-7.53607E-006	1.57041E-005	-2.97000E-001	2.82706E-004	7	..........a	-327.68
	40	0.082	-2.57274E-001	-2.78874E-001	-2.68074E-001	8.17107E-006	-7.54024E-006	1.57113E-005	-2.95000E-001	3.49373E-004	7	..........a	-327.68
	41	0.084	-2.55374E-001	-2.76857E-001	-2.66116E-001	8.17007E-006	-7.52624E-006	1.56963E-005	-2.93000E-001	3.24373E-004	7	..........a	-327.68
	42	0.086	-2.53324E-001	-2.74899E-001	-2.64112E-001	8.17490E-006	-7.53024E-006	1.57051E-005	-2.91000E-001	3.49373E-004	7	..........a	-327.68
	43	0.088	-2.51357E-001	-2.72907E-001	-2.62132E-001	8.17340E-006	-7.52791E-006	1.57013E-005	-2.89000E-001	3.32706E-004	7	..........a	-327.68
	44	0.09	-2.49341E-001	-2.70941E-001	-2.60141E-001	8.17690E-006	-7.52757E-006	1.57045E-005	-2.87000E-001	3.74373E-004	7	..........a	-327.68
	45	0.092	-2.47358E-001	-2.68916E-001	-2.58137E-001	8.17723E-006	-7.51991E-006	1.56971E-005	-2.85000E-001	3.49373E-004	7	..........a	-327.68
	46	0.094	-2.45374E-001	-2.66849E-001	-2.56112E-001	8.18307E-006	-7.52291E-006	1.57060E-005	-2.83000E-001	3.16039E-004	7	..........a	-327.68
	47	0.096	-2.43341E-001	-2.64841E-001	-2.54091E-001	8.17673E-006	-7.52307E-006	1.56998E-005	-2.81000E-001	3.07706E-004	7	..........a	-327.68
	48	0.098	-2.41224E-001	-2.62891E-001	-2.52058E-001	8.18557E-006	-7.51740E-006	1.57030E-005	-2.79000E-001	3.41039E-004	7	..........a	-327.68
	49	0.1	-2.39358E-001	-2.60891E-001	-2.50124E-001	8.18507E-006	-7.50924E-006	1.56943E-005	-2.77000E-001	2.82706E-004	7	..........a	-327.68
	50	0.102	-2.37308E-001	-2.58907E-001	-2.48108E-001	8.18507E-006	-7.51290E-006	1.56980E-005	-2.75000E-001	3.99373E-004	7	..........a	-327.68
	51	0.104	-2.35291E-001	-2.56907E-001	-2.46099E-001	8.18690E-006	-7.51374E-006	1.57006E-005	-2.73000E-001	3.32706E-004	7	..........a	-327.68
	52	0.106	-2.33324E-001	-2.54874E-001	-2.44099E-001	8.18540E-006	-7.50424E-006	1.56896E-005	-2.71000E-001	3.99373E-004	7	..........a	-327.68
	53	0.108	-2.31341E-001	-2.52891E-001	-2.42116E-001	8.18707E-006	-7.50757E-006	1.56946E-005	-2.69000E-001	2.91039E-004	7	..........a	-327.68
	54	0.11	-2.29358E-001	-2.50924E-001	-2.40141E-001	8.18857E-006	-7.50590E-006	1.56945E-005	-2.67000E-001	3.16039E-004	7	..........a	-327.68
	55	0.112	-2.27416E-001	-2.48824E-001	-2.38120E-001	8.18690E-006	-7.50507E-006	1.56920E-005	-2.65000E-001	2.57706E-004	7	..........a	-327.68
	56	0.114	-2.25291E-001	-2.46866E-001	-2.36078E-001	8.19424E-006	-7.49990E-006	1.56941E-005	-2.63000E-001	3.32706E-004	7	..........a	-327.68
	57	0.116	-2.23308E-001	-2.44874E-001	-2.34091E-001	8.19207E-006	-7.49957E-006	1.56916E-005	-2.61000E-001	3.41039E-004	7	..........a	-327.68
	58	0.118	-2.21308E-001	-2.42858E-001	-2.32083E-001	8.19457E-006	-7.50090E-006	1.56955E-005	-2.59000E-001	3.57706E-004	7	..........a	-327.68
	59	0.12	-2.19241E-001	-2.40891E-001	-2.30066E-001	8.19557E-006	-7.49690E-006	1.56925E-005	-2.57000E-001	3.41039E-004	7	..........a	-327.68
	60	0.122	-2.17358E-001	-2.38891E-001	-2.28124E-001	8.19590E-006	-7.49357E-006	1.56895E-005	-2.55000E-001	2.74373E-004	7	..........a	-327.68
	61	0.124	-2.15224E-001	-2.36908E-001	-2.26066E-001	8.19624E-006	-7.49940E-006	1.56956E-005	-2.53000E-001	3.49373E-004	7	..........a	-327.68
	62	0.126	-2.13291E-001	-2.34924E-001	-2.24108E-001	8.19940E-006	-7.48907E-006	1.56885E-005	-2.51000E-001	3.32706E-004	7	..........a	-327.68
	63	0.128	-2.11258E-001	-2.32891E-001	-2.22074E-001	8.19557E-006	-7.49307E-006	1.56886E-005	-2.49000E-001	2.91039E-004	7	..........a	-327.68
	64	0.13	-2.09291E-001	-2.30908E-001	-2.20099E-001	8.19824E-006	-7.49157E-006	1.56898E-005	-2.47000E-001	3.57706E-004	7	..........a	-327.68
	65	0.132	-2.07266E-001	-2.28908E-001	-2.18087E-001	8.19307E-006	-7.48890E-006	1.56820E-005	-2.45000E-001	3.16039E-004	7	..........a	-327.68
	66	0.134	-2.05341E-001	-2.26908E-001	-2.16124E-001	8.19874E-006	-7.48940E-006	1.56881E-005	-2.43000E-001	3.66039E-004	7	..........a	-327.68
	67	0.136	-2.03274E-001	-2.24908E-001	-2.14091E-001	8.19924E-006	-7.48557E-006	1.56848E-005	-2.41000E-001	3.82706E-004	7	..........a	-327.68
	68	0.138	-2.01258E-001	-2.23041E-001	-2.12149E-001	8.19740E-006	-7.49040E-006	1.56878E-005	-2.39000E-001	3.66039E-004	7	..........a	-327.68
	69	0.14	-1.99274E-001	-2.20949E-001	-2.10112E-001	8.19990E-006	-7.49190E-006	1.56918E-005	-2.37000E-001	3.41039E-004	7	..........a	-327.68
	70	0.142	-1.97324E-001	-2.18924E-001	-2.08124E-001	8.19890E-006	-7.48573E-006	1.56846E-005	-2.35000E-001	3.41039E-004	7	..........a	-327.68
	71	0.144	-1.95291E-001	-2.16958E-001	-2.06124E-001	8.19624E-006	-7.48607E-006	1.56823E-005	-2.33000E-001	2.82706E-004	7	..........a	-327.68
	72	0.146	-1.93266E-001	-2.14891E-001	-2.04078E-001	8.19940E-006	-7.49307E-006	1.56925E-005	-2.31000E-001	3.41039E-004	7	..........a	-327.68
	73	0.148	-1.91249E-001	-2.12974E-001	-2.02112E-001	8.19674E-006	-7.48673E-006	1.56835E-005	-2.29000E-001	3.66039E-004	7	..........a	-327.68
	74	0.15	-1.89324E-001	-2.10958E-001	-2.00141E-001	8.20057E-006	-7.48473E-006	1.56853E-005	-2.27000E-001	3.82706E-004	7	..........a	-327.68
	75	0.152	-1.87308E-001	-2.08891E-001	-1.98099E-001	8.19890E-006	-7.48440E-006	1.56833E-005	-2.25000E-001	3.49373E-004	7	..........a	-327.68
	76	0.154	-1.85291E-001	-2.06941E-001	-1.96116E-001	8.19824E-006	-7.48923E-006	1.56875E-005	-2.23000E-001	3.66039E-004	7	..........a	-327.68
	77	0.156	-1.83258E-001	-2.05049E-001	-1.94153E-001	8.20207E-006	-7.48873E-006	1.56908E-005	-2.21000E-001	3.07706E-004	7	..........a	-327.68
	78	0.158	-1.81316E-001	-2.02908E-001	-1.92112E-001	8.19974E-006	-7.48607E-006	1.56858E-005	-2.19000E-001	3.32706E-004	7	..........a	-327.68
	79	0.16	-1.79258E-001	-2.00941E-001	-1.90099E-001	8.19474E-006	-7.48940E-006	1.56841E-005	-2.17000E-001	3.49373E-004	7	..........a	-327.68
	80	0.162	-1.77324E-001	-1.98908E-001	-1.88116E-001	8.20090E-006	-7.48723E-006	1.56881E-005	-2.15000E-001	3.66039E-004	7	..........a	-327.68
	81	0.164	-1.75324E-001	-1.96974E-001	-1.86149E-001	8.19507E-006	-7.48873E-006	1.56838E-005	-2.13000E-001	3.49373E-004	7	..........a	-327.68
	82	0.166	-1.73274E-001	-1.94999E-001	-1.84137E-001	8.20190E-006	-7.48623E-006	1.56881E-005	-2.11000E-001	3.41039E-004	7	..........a	-327.68
	83	0.168	-1.71274E-001	-1.92908E-001	-1.82091E-001	8.20274E-006	-7.48557E-006	1.56883E-005	-2.09000E-001	3.24373E-004	7	..........a	-327.68
	84	0.17	-1.69324E-001	-1.90924E-001	-1.80124E-001	8.19607E-006	-7.48323E-006	1.56793E-005	-2.07000E-001	3.66039E-004	7	..........a	-327.68
	85	0.172	-1.67316E-001	-1.88974E-001	-1.78145E-001	8.20524E-006	-7.48423E-006	1.56895E-005	-2.05000E-001	3.41039E-004	7	..........a	-327.68
	86	0.174	-1.65241E-001	-1.86966E-001	-1.76103E-001	8.19940E-006	-7.48907E-006	1.56885E-005	-2.03000E-001	2.82706E-004	7	..........a	-327.68
	87	0.176	-1.63241E-001	-1.84891E-001	-1.74066E-001	8.20507E-006	-7.48857E-006	1.56936E-005	-2.01000E-001	3.16039E-004	7	..........a	-327.68
	88	0.178	-1.61274E-001	-1.82908E-001	-1.72091E-001	8.20224E-006	-7.48790E-006	1.56901E-005	-1.99000E-001	2.82706E-004	7	..........a	-327.68
	89	0.18	-1.59241E-001	-1.80908E-001	-1.70074E-001	8.20457E-006	-7.48357E-006	1.56881E-005	-1.97000E-001	3.66039E-004	7	..........a	-327.68
	90	0.182	-1.57266E-001	-1.78991E-001	-1.68128E-001	8.20557E-006	-7.49173E-006	1.56973E-005	-1.95000E-001	3.41039E-004	7	..........a	-327.68
	91	0.184	-1.55308E-001	-1.76908E-001	-1.66108E-001	8.20674E-006	-7.48423E-006	1.56910E-005	-1.93000E-001	3.99373E-004	7	..........a	-327.68
	92	0.186	-1.53358E-001	-1.74958E-001	-1.64158E-001	8.20724E-006	-7.48523E-006	1.56925E-005	-1.91000E-001	2.82706E-004	7	..........a	-327.68
	93	0.188	-1.51274E-001	-1.73024E-001	-1.62149E-001	8.20940E-006	-7.48457E-006	1.56940E-005	-1.89000E-001	3.41039E-004	7	..........a	-327.68
	94	0.19	-1.49258E-001	-1.70908E-001	-1.60083E-001	8.20440E-006	-7.48840E-006	1.56928E-005	-1.87000E-001	3.24373E-004	7	..........a	-327.68
	95	0.192	-1.47308E-001	-1.68891E-001	-1.58099E-001	8.20490E-006	-7.48573E-006	1.56906E-005	-1.85000E-001	3.16039E-004	7	..........a	-327.68
	96	0.194	-1.45391E-001	-1.66924E-001	-1.56158E-001	8.20374E-006	-7.48257E-006	1.56863E-005	-1.83000E-001	2.74373E-004	7	..........a	-327.68
	97	0.196	-1.43291E-001	-1.64916E-001	-1.54103E-001	8.20540E-006	-7.48673E-006	1.56921E-005	-1.81000E-001	3.91039E-004	7	..........a	-327.68
	98	0.198	-1.41241E-001	-1.62874E-001	-1.52058E-001	8.20857E-006	-7.48573E-006	1.56943E-005	-1.79000E-001	3.57706E-004	7	..........a	-327.68
	99	0.2	-1.39299E-001	-1.60891E-001	-1.50095E-001	8.20940E-006	-7.48157E-006	1.56910E-005	-1.77000E-001	3.32706E-004	7	..........a	-327.68
	100	0.202	-1.37224E-001	-1.58891E-001	-1.48058E-001	8.20974E-006	-7.48540E-006	1.56951E-005	-1.75000E-001	2.91039E-004	7	..........a	-327.68
