EXPLAIN
TAG	SQUARE_WAVE
TITLE	LABEL	Square Wave Voltammetry	Test Identifier
DATE	LABEL	8/10/2020	Date
TIME	LABEL	14:39:18	Time
NOTES	NOTES	1	Notes...
	 STD1 0.1 fg/mL 08102
PSTAT	PSTAT	REF600-24079	Potentiostat
VINIT	QUANT	-3.50000E-001	Initial E (V)
VFINAL	QUANT	-1.50000E-001	Final E (V)
STEPSIZE	QUANT	2.00000E+000	Step Size (mV)
TIMERRES	QUANT	3.33340E-005	&Timer Resolution
FREQUENCY	QUANT	1.00000E+001	Frequency (Hz)
PULSESIZE	QUANT	2.50000E+001	Pulse Size E (mV)
PULSEON	QUANT	1.00000E-001	Pulse &Time (s)
NOISEREJECT	TOGGLE	F	Noise Rejection
AREA	QUANT	2.00000E-002	Sample Area (cm^2)
IMODE	SELECTOR	1	I/E Range Mode
IRANGE	QUANT	1.00000E-003	Max Current (mA)
EQDELAY	IQUANT	10	Equil. Time (s)
IRCOMP	SELECTOR	0	IRComp
PFCOR	QUANT	5.00000E+001	PF Corr. (ohm)
CYCLES	IQUANT	101	C&ycles (#)
ELECTRODETYPE	SELECTOR	0	Electrode Type
STRIPPING	TOGGLE	F	Used for Stripping
POLARITY	TOGGLE	F	Signal Polarity
LINEFREQ	IQUANT	60	Line Frequency (Hz)
INTPERIOD	QUANT	3.3334E-005	Integration Period (s)
SEQUENCER	TOGGLE	TRUE	Run as Sequence
PSTATMODEL	IQUANT	4	Pstat Model
PSTATSECTION	LABEL	REF600-24079	Pstat Section
PSTATSERIALNO	LABEL	24079	Pstat Serial Number
CTRLMODE	IQUANT	1	Control Mode
ELECTROMETER	IQUANT	0	RE=0 or CS=1
IESTAB	IQUANT	2	I/E Stability
CASPEED	IQUANT	6	Control Amp Speed
CONVENTION	IQUANT	1	Current Convention
ICHRANGE	IQUANT	2	Ich Range
ICHRANGEMODE	TOGGLE	F	Ich Auto Range
ICHOFFSETENABLE	TOGGLE	F	Ich Offset Enable
ICHOFFSET	QUANT	0	Ich Offset (V)
ICHFILTER	IQUANT	2	Ich Filter
VCHRANGE	IQUANT	2	Vch Range
VCHRANGEMODE	TOGGLE	F	Vch Auto Range
VCHOFFSETENABLE	TOGGLE	F	Vch Offset Enable
VCHOFFSET	QUANT	0	Vch Offset (V)
VCHFILTER	IQUANT	2	Vch Filter
ACHRANGE	IQUANT	2	Ach Range
ACHOFFSETENABLE	TOGGLE	F	Ach Offset Enable
ACHOFFSET	QUANT	0	Ach Offset (V)
ACHFILTER	IQUANT	1	Ach Filter
IERANGELOWERLIMIT	IQUANT	1	I/E Range Lower Limit
IERANGEMODE	TOGGLE	F	I/E AutoRange
IERANGE	IQUANT	6	I/E Range
POSFEEDENABLE	TOGGLE	F	Positive Feedback IR Comp
POSFEEDRESISTANCE	QUANT	0	Positive Feedback Resistance (ohm)
ACHSELECT	IQUANT	0	Ach Select
SENSECABLEID	IQUANT	13	Sense Cable ID
PWRCABLEID	IQUANT	13	Power Cable ID
DCCALDATE	LABEL	6/30/2020	DC Calibration Date
ACCALDATE	LABEL	6/30/2020	AC Calibration Date
THERMOSELECT	IQUANT	1	Thermo Select
FRAMEWORKVERSION	LABEL	7.8.2	Framework Version
INSTRUMENTVERSION	LABEL	4.40	Instrument Version
CURVE	TABLE	101
	Pt	T	Vfwd	Vrev	Vstep	Ifwd	Irev	Idif	Sig	Ach	IERange	Over	Temp
	#	s	V	V	V	A	A	A	V	V	#	bits	deg C
	0	0.1	-3.25047E-001	-3.74963E-001	-3.50005E-001	-2.73946E-008	-6.79344E-008	4.05398E-008	-3.75000E-001	4.29039E-004	6	..........a	-327.68
	1	0.2	-3.22961E-001	-3.72988E-001	-3.47974E-001	-1.45863E-008	-6.25734E-008	4.79871E-008	-3.73000E-001	4.29373E-004	6	..........a	-327.68
	2	0.3	-3.21018E-001	-3.70958E-001	-3.45988E-001	-1.20763E-008	-6.03428E-008	4.82665E-008	-3.71000E-001	4.33039E-004	6	..........a	-327.68
	3	0.4	-3.18994E-001	-3.69121E-001	-3.44058E-001	-1.07655E-008	-5.88476E-008	4.80821E-008	-3.69000E-001	4.29206E-004	6	..........a	-327.68
	4	0.5	-3.17069E-001	-3.66956E-001	-3.42013E-001	-9.56763E-009	-5.75667E-008	4.79991E-008	-3.67000E-001	4.27039E-004	6	..........a	-327.68
	5	0.6	-3.14941E-001	-3.65021E-001	-3.39981E-001	-8.59651E-009	-5.64253E-008	4.78288E-008	-3.65000E-001	4.30039E-004	6	..........a	-327.68
	6	0.7	-3.13086E-001	-3.62941E-001	-3.38013E-001	-7.76407E-009	-5.53505E-008	4.75864E-008	-3.63000E-001	4.36206E-004	6	..........a	-327.68
	7	0.8	-3.10968E-001	-3.61075E-001	-3.36022E-001	-6.84295E-009	-5.43037E-008	4.74607E-008	-3.61000E-001	4.29539E-004	6	..........a	-327.68
	8	0.9	-3.09059E-001	-3.58966E-001	-3.34013E-001	-6.36089E-009	-5.33659E-008	4.70050E-008	-3.59000E-001	4.29873E-004	6	..........a	-327.68
	9	1	-3.06955E-001	-3.57090E-001	-3.32022E-001	-5.75382E-009	-5.23734E-008	4.66196E-008	-3.57000E-001	4.33539E-004	6	..........a	-327.68
	10	1.1	-3.05084E-001	-3.54980E-001	-3.30032E-001	-5.00372E-009	-5.16127E-008	4.66089E-008	-3.55000E-001	4.31039E-004	6	..........a	-327.68
	11	1.2	-3.03007E-001	-3.53057E-001	-3.28032E-001	-4.34997E-009	-5.07479E-008	4.63979E-008	-3.53000E-001	4.27206E-004	6	..........a	-327.68
	12	1.3	-3.01072E-001	-3.50971E-001	-3.26021E-001	-3.68189E-009	-5.00848E-008	4.64029E-008	-3.51000E-001	4.26873E-004	6	..........a	-327.68
	13	1.4	-2.98972E-001	-3.49035E-001	-3.24003E-001	-2.99780E-009	-4.95027E-008	4.65049E-008	-3.49000E-001	4.29039E-004	6	..........a	-327.68
	14	1.5	-2.97039E-001	-3.46988E-001	-3.22013E-001	-2.53907E-009	-4.86629E-008	4.61239E-008	-3.47000E-001	4.33706E-004	6	..........a	-327.68
	15	1.6	-2.94980E-001	-3.45131E-001	-3.20055E-001	-1.80365E-009	-4.80882E-008	4.62846E-008	-3.45000E-001	4.25539E-004	6	..........a	-327.68
	16	1.7	-2.93067E-001	-3.42960E-001	-3.18014E-001	-1.06489E-009	-4.73354E-008	4.62706E-008	-3.43000E-001	4.27706E-004	6	..........a	-327.68
	17	1.8	-2.90939E-001	-3.41057E-001	-3.15998E-001	-4.95813E-010	-4.66957E-008	4.61999E-008	-3.41000E-001	4.29373E-004	6	..........a	-327.68
	18	1.9	-2.89095E-001	-3.38957E-001	-3.14026E-001	1.36267E-010	-4.60259E-008	4.61622E-008	-3.39000E-001	4.30539E-004	6	..........a	-327.68
	19	2	-2.86982E-001	-3.37082E-001	-3.12032E-001	6.65001E-010	-4.55265E-008	4.61915E-008	-3.37000E-001	4.32206E-004	6	..........a	-327.68
	20	2.1	-2.85090E-001	-3.35000E-001	-3.10045E-001	1.17373E-009	-4.47935E-008	4.59672E-008	-3.35000E-001	4.32373E-004	6	..........a	-327.68
	21	2.2	-2.82947E-001	-3.33070E-001	-3.08009E-001	1.88582E-009	-4.42954E-008	4.61812E-008	-3.33000E-001	4.32706E-004	6	..........a	-327.68
	22	2.3	-2.81114E-001	-3.30954E-001	-3.06034E-001	2.43356E-009	-4.38697E-008	4.63032E-008	-3.31000E-001	4.34373E-004	6	..........a	-327.68
	23	2.4	-2.79019E-001	-3.29087E-001	-3.04053E-001	3.02764E-009	-4.35090E-008	4.65366E-008	-3.29000E-001	4.26039E-004	6	..........a	-327.68
	24	2.5	-2.77089E-001	-3.26985E-001	-3.02037E-001	3.50303E-009	-4.28829E-008	4.63859E-008	-3.27000E-001	4.27373E-004	6	..........a	-327.68
	25	2.6	-2.74963E-001	-3.25053E-001	-3.00008E-001	4.15745E-009	-4.23921E-008	4.65496E-008	-3.25000E-001	4.28873E-004	6	..........a	-327.68
	26	2.7	-2.73071E-001	-3.22974E-001	-2.98022E-001	4.82386E-009	-4.20798E-008	4.69036E-008	-3.23000E-001	4.24873E-004	6	..........a	-327.68
	27	2.8	-2.71012E-001	-3.21014E-001	-2.96013E-001	5.40727E-009	-4.16371E-008	4.70443E-008	-3.21000E-001	4.29039E-004	6	..........a	-327.68
	28	2.9	-2.69064E-001	-3.18973E-001	-2.94018E-001	5.80199E-009	-4.13810E-008	4.71830E-008	-3.19000E-001	4.27706E-004	6	..........a	-327.68
	29	3	-2.66905E-001	-3.17079E-001	-2.91992E-001	6.43674E-009	-4.09733E-008	4.74100E-008	-3.17000E-001	4.27706E-004	6	..........a	-327.68
	30	3.1	-2.65123E-001	-3.14939E-001	-2.90031E-001	7.16349E-009	-4.06929E-008	4.78564E-008	-3.15000E-001	4.22873E-004	6	..........a	-327.68
	31	3.2	-2.63015E-001	-3.13082E-001	-2.88048E-001	7.64289E-009	-4.05529E-008	4.81958E-008	-3.13000E-001	4.24706E-004	6	..........a	-327.68
	32	3.3	-2.61059E-001	-3.10988E-001	-2.86023E-001	8.41732E-009	-4.00465E-008	4.84638E-008	-3.11000E-001	4.18706E-004	6	..........a	-327.68
	33	3.4	-2.58933E-001	-3.09056E-001	-2.83994E-001	8.83437E-009	-3.98205E-008	4.86549E-008	-3.09000E-001	4.28373E-004	6	..........a	-327.68
	34	3.5	-2.57083E-001	-3.06942E-001	-2.82013E-001	9.32677E-009	-3.96788E-008	4.90056E-008	-3.07000E-001	4.20206E-004	6	..........a	-327.68
	35	3.6	-2.55049E-001	-3.05104E-001	-2.80076E-001	9.87184E-009	-3.93471E-008	4.92189E-008	-3.05000E-001	4.26873E-004	6	..........a	-327.68
	36	3.7	-2.53093E-001	-3.03030E-001	-2.78062E-001	1.03796E-008	-3.88974E-008	4.92769E-008	-3.03000E-001	4.17206E-004	6	..........a	-327.68
	37	3.8	-2.50953E-001	-3.01070E-001	-2.76012E-001	1.08786E-008	-3.88694E-008	4.97480E-008	-3.01000E-001	4.23373E-004	6	..........a	-327.68
	38	3.9	-2.49082E-001	-2.98966E-001	-2.74024E-001	1.13274E-008	-3.88384E-008	5.01657E-008	-2.99000E-001	4.25706E-004	6	..........a	-327.68
	39	4	-2.47016E-001	-2.97057E-001	-2.72036E-001	1.14720E-008	-3.83983E-008	4.98703E-008	-2.97000E-001	4.26873E-004	6	..........a	-327.68
	40	4.1	-2.45057E-001	-2.94991E-001	-2.70024E-001	1.19781E-008	-3.82863E-008	5.02644E-008	-2.95000E-001	4.20206E-004	6	..........a	-327.68
	41	4.2	-2.42931E-001	-2.92989E-001	-2.67960E-001	1.25368E-008	-3.80806E-008	5.06174E-008	-2.93000E-001	4.30373E-004	6	..........a	-327.68
	42	4.3	-2.41115E-001	-2.90916E-001	-2.66016E-001	1.27755E-008	-3.76925E-008	5.04681E-008	-2.91000E-001	4.23039E-004	6	..........a	-327.68
	43	4.4	-2.39049E-001	-2.89098E-001	-2.64073E-001	1.28125E-008	-3.75152E-008	5.03277E-008	-2.89000E-001	4.25873E-004	6	..........a	-327.68
	44	4.5	-2.37077E-001	-2.86988E-001	-2.62032E-001	1.30452E-008	-3.72092E-008	5.02544E-008	-2.87000E-001	4.29873E-004	6	..........a	-327.68
	45	4.6	-2.34927E-001	-2.85082E-001	-2.60004E-001	1.33023E-008	-3.69958E-008	5.02981E-008	-2.85000E-001	4.31873E-004	6	..........a	-327.68
	46	4.7	-2.33099E-001	-2.82944E-001	-2.58021E-001	1.36223E-008	-3.66951E-008	5.03174E-008	-2.83000E-001	4.37206E-004	6	..........a	-327.68
	47	4.8	-2.31022E-001	-2.81114E-001	-2.56068E-001	1.35533E-008	-3.63380E-008	4.98913E-008	-2.81000E-001	4.27706E-004	6	..........a	-327.68
	48	4.9	-2.29080E-001	-2.79029E-001	-2.54055E-001	1.37630E-008	-3.59580E-008	4.97210E-008	-2.79000E-001	4.21873E-004	6	..........a	-327.68
	49	5	-2.26949E-001	-2.77082E-001	-2.52015E-001	1.38070E-008	-3.54873E-008	4.92943E-008	-2.77000E-001	4.24373E-004	6	..........a	-327.68
	50	5.1	-2.25083E-001	-2.74966E-001	-2.50025E-001	1.37977E-008	-3.51359E-008	4.89336E-008	-2.75000E-001	4.25373E-004	6	..........a	-327.68
	51	5.2	-2.23021E-001	-2.73059E-001	-2.48040E-001	1.39427E-008	-3.47105E-008	4.86532E-008	-2.73000E-001	4.32373E-004	6	..........a	-327.68
	52	5.3	-2.21075E-001	-2.70992E-001	-2.46034E-001	1.40897E-008	-3.45108E-008	4.86005E-008	-2.71000E-001	4.27539E-004	6	..........a	-327.68
	53	5.4	-2.18971E-001	-2.69028E-001	-2.43999E-001	1.40617E-008	-3.37214E-008	4.77831E-008	-2.69000E-001	4.19873E-004	6	..........a	-327.68
	54	5.5	-2.17115E-001	-2.66905E-001	-2.42010E-001	1.41290E-008	-3.34827E-008	4.76117E-008	-2.67000E-001	4.21539E-004	6	..........a	-327.68
	55	5.6	-2.15043E-001	-2.65122E-001	-2.40083E-001	1.43214E-008	-3.27356E-008	4.70570E-008	-2.65000E-001	4.26539E-004	6	..........a	-327.68
	56	5.7	-2.13059E-001	-2.62990E-001	-2.38025E-001	1.42127E-008	-3.22869E-008	4.64996E-008	-2.63000E-001	4.18873E-004	6	..........a	-327.68
	57	5.8	-2.10941E-001	-2.61078E-001	-2.36009E-001	1.42747E-008	-3.16928E-008	4.59675E-008	-2.61000E-001	4.17873E-004	6	..........a	-327.68
	58	5.9	-2.09091E-001	-2.58940E-001	-2.34015E-001	1.40997E-008	-3.13091E-008	4.54088E-008	-2.59000E-001	4.24539E-004	6	..........a	-327.68
	59	6	-2.07021E-001	-2.57075E-001	-2.32048E-001	1.43367E-008	-3.06540E-008	4.49907E-008	-2.57000E-001	4.26873E-004	6	..........a	-327.68
	60	6.1	-2.05085E-001	-2.55022E-001	-2.30053E-001	1.43851E-008	-3.04063E-008	4.47914E-008	-2.55000E-001	4.23039E-004	6	..........a	-327.68
	61	6.2	-2.02945E-001	-2.53091E-001	-2.28018E-001	1.43791E-008	-2.95905E-008	4.39696E-008	-2.53000E-001	4.24706E-004	6	..........a	-327.68
	62	6.3	-2.01093E-001	-2.50961E-001	-2.26027E-001	1.44678E-008	-2.91348E-008	4.36025E-008	-2.51000E-001	4.23039E-004	6	..........a	-327.68
	63	6.4	-1.99043E-001	-2.49045E-001	-2.24044E-001	1.46745E-008	-2.85594E-008	4.32338E-008	-2.49000E-001	4.26706E-004	6	..........a	-327.68
	64	6.5	-1.97090E-001	-2.46974E-001	-2.22032E-001	1.47215E-008	-2.80857E-008	4.28071E-008	-2.47000E-001	4.23373E-004	6	..........a	-327.68
	65	6.6	-1.94972E-001	-2.45014E-001	-2.19993E-001	1.46718E-008	-2.75996E-008	4.22714E-008	-2.45000E-001	4.28039E-004	6	..........a	-327.68
	66	6.7	-1.93085E-001	-2.42940E-001	-2.18012E-001	1.48265E-008	-2.70319E-008	4.18583E-008	-2.43000E-001	4.33706E-004	6	..........a	-327.68
	67	6.8	-1.91101E-001	-2.41121E-001	-2.16111E-001	1.49121E-008	-2.66635E-008	4.15756E-008	-2.41000E-001	4.37206E-004	6	..........a	-327.68
	68	6.9	-1.89081E-001	-2.39033E-001	-2.14057E-001	1.50878E-008	-2.61861E-008	4.12739E-008	-2.39000E-001	4.26539E-004	6	..........a	-327.68
	69	7	-1.86932E-001	-2.37029E-001	-2.11981E-001	1.51275E-008	-2.55893E-008	4.07168E-008	-2.37000E-001	4.27373E-004	6	..........a	-327.68
	70	7.1	-1.85116E-001	-2.34936E-001	-2.10026E-001	1.52409E-008	-2.51853E-008	4.04261E-008	-2.35000E-001	4.26873E-004	6	..........a	-327.68
	71	7.2	-1.83061E-001	-2.33095E-001	-2.08078E-001	1.52812E-008	-2.47729E-008	4.00541E-008	-2.33000E-001	4.29873E-004	6	..........a	-327.68
	72	7.3	-1.81090E-001	-2.31008E-001	-2.06049E-001	1.55712E-008	-2.46492E-008	4.02204E-008	-2.31000E-001	4.28706E-004	6	..........a	-327.68
	73	7.4	-1.78946E-001	-2.29092E-001	-2.04019E-001	1.54339E-008	-2.40725E-008	3.95064E-008	-2.29000E-001	4.20873E-004	6	..........a	-327.68
	74	7.5	-1.77096E-001	-2.26957E-001	-2.02026E-001	1.54862E-008	-2.36191E-008	3.91053E-008	-2.27000E-001	4.26206E-004	6	..........a	-327.68
	75	7.6	-1.75042E-001	-2.25082E-001	-2.00062E-001	1.56252E-008	-2.32720E-008	3.88973E-008	-2.25000E-001	4.32706E-004	6	..........a	-327.68
	76	7.7	-1.73088E-001	-2.22985E-001	-1.98037E-001	1.60693E-008	-2.28020E-008	3.88713E-008	-2.23000E-001	4.22706E-004	6	..........a	-327.68
	77	7.8	-1.70957E-001	-2.21046E-001	-1.96001E-001	1.60146E-008	-2.26363E-008	3.86509E-008	-2.21000E-001	4.33539E-004	6	..........a	-327.68
	78	7.9	-1.69080E-001	-2.18993E-001	-1.94036E-001	1.61390E-008	-2.23509E-008	3.84899E-008	-2.19000E-001	4.22873E-004	6	..........a	-327.68
	79	8	-1.67019E-001	-2.17126E-001	-1.92073E-001	1.63497E-008	-2.21166E-008	3.84662E-008	-2.17000E-001	4.32206E-004	6	..........a	-327.68
	80	8.1	-1.64978E-001	-2.15009E-001	-1.89994E-001	1.64023E-008	-2.15218E-008	3.79242E-008	-2.15000E-001	4.26373E-004	6	..........a	-327.68
	81	8.2	-1.62912E-001	-2.13047E-001	-1.87979E-001	1.66000E-008	-2.13458E-008	3.79458E-008	-2.13000E-001	4.27539E-004	6	..........a	-327.68
	82	8.3	-1.61090E-001	-2.10952E-001	-1.86021E-001	1.68331E-008	-2.10644E-008	3.78975E-008	-2.11000E-001	4.27706E-004	6	..........a	-327.68
	83	8.4	-1.59030E-001	-2.09095E-001	-1.84062E-001	1.67734E-008	-2.09024E-008	3.76758E-008	-2.09000E-001	4.25706E-004	6	..........a	-327.68
	84	8.5	-1.57095E-001	-2.07010E-001	-1.82052E-001	1.69624E-008	-2.06414E-008	3.76038E-008	-2.07000E-001	4.34373E-004	6	..........a	-327.68
	85	8.6	-1.54953E-001	-2.05083E-001	-1.80018E-001	1.71244E-008	-2.02803E-008	3.74048E-008	-2.05000E-001	4.28539E-004	6	..........a	-327.68
	86	8.7	-1.53116E-001	-2.02957E-001	-1.78036E-001	1.73655E-008	-2.00746E-008	3.74401E-008	-2.03000E-001	4.28706E-004	6	..........a	-327.68
	87	8.8	-1.51057E-001	-2.01100E-001	-1.76078E-001	1.75922E-008	-1.98319E-008	3.74241E-008	-2.01000E-001	4.27039E-004	6	..........a	-327.68
	88	8.9	-1.49101E-001	-1.99013E-001	-1.74057E-001	1.75285E-008	-1.94179E-008	3.69464E-008	-1.99000E-001	4.26873E-004	6	..........a	-327.68
	89	9	-1.46970E-001	-1.97066E-001	-1.72018E-001	1.76565E-008	-1.96179E-008	3.72744E-008	-1.97000E-001	4.31206E-004	6	..........a	-327.68
	90	9.1	-1.45070E-001	-1.94982E-001	-1.70026E-001	1.77765E-008	-1.90382E-008	3.68147E-008	-1.95000E-001	4.22206E-004	6	..........a	-327.68
	91	9.2	-1.43023E-001	-1.93036E-001	-1.68029E-001	1.77792E-008	-1.91298E-008	3.69090E-008	-1.93000E-001	4.34373E-004	6	..........a	-327.68
	92	9.3	-1.41063E-001	-1.91021E-001	-1.66042E-001	1.80592E-008	-1.88315E-008	3.68907E-008	-1.91000E-001	4.28873E-004	6	..........a	-327.68
	93	9.4	-1.38909E-001	-1.89102E-001	-1.64005E-001	1.82592E-008	-1.83891E-008	3.66483E-008	-1.89000E-001	4.28206E-004	6	..........a	-327.68
	94	9.5	-1.37117E-001	-1.86944E-001	-1.62030E-001	1.85419E-008	-1.82254E-008	3.67673E-008	-1.87000E-001	4.28873E-004	6	..........a	-327.68
	95	9.6	-1.35021E-001	-1.85088E-001	-1.60054E-001	1.86240E-008	-1.82361E-008	3.68600E-008	-1.85000E-001	4.29039E-004	6	..........a	-327.68
	96	9.7	-1.33101E-001	-1.82999E-001	-1.58050E-001	1.87523E-008	-1.78997E-008	3.66520E-008	-1.83000E-001	4.29039E-004	6	..........a	-327.68
	97	9.8	-1.30944E-001	-1.81085E-001	-1.56014E-001	1.87110E-008	-1.78874E-008	3.65983E-008	-1.81000E-001	4.27706E-004	6	..........a	-327.68
	98	9.9	-1.29098E-001	-1.78955E-001	-1.54026E-001	1.91304E-008	-1.76763E-008	3.68067E-008	-1.79000E-001	4.28873E-004	6	..........a	-327.68
	99	10	-1.27046E-001	-1.77102E-001	-1.52074E-001	1.90983E-008	-1.75893E-008	3.66877E-008	-1.77000E-001	4.34039E-004	6	..........a	-327.68
	100	10.1	-1.25098E-001	-1.75030E-001	-1.50064E-001	1.92184E-008	-1.74970E-008	3.67153E-008	-1.75000E-001	4.27706E-004	6	..........a	-327.68
