EXPLAIN
TAG	SQUARE_WAVE
TITLE	LABEL	Square Wave Voltammetry	Test Identifier
DATE	LABEL	8/10/2020	Date
TIME	LABEL	14:37:57	Time
NOTES	NOTES	1	Notes...
	 STD1 0.1 fg/mL 08102
PSTAT	PSTAT	REF600-24079	Potentiostat
VINIT	QUANT	-3.50000E-001	Initial E (V)
VFINAL	QUANT	-1.50000E-001	Final E (V)
STEPSIZE	QUANT	2.00000E+000	Step Size (mV)
TIMERRES	QUANT	3.33340E-005	&Timer Resolution
FREQUENCY	QUANT	1.00000E+001	Frequency (Hz)
PULSESIZE	QUANT	2.50000E+001	Pulse Size E (mV)
PULSEON	QUANT	1.00000E-001	Pulse &Time (s)
NOISEREJECT	TOGGLE	F	Noise Rejection
AREA	QUANT	2.00000E-002	Sample Area (cm^2)
IMODE	SELECTOR	1	I/E Range Mode
IRANGE	QUANT	1.00000E-003	Max Current (mA)
EQDELAY	IQUANT	10	Equil. Time (s)
IRCOMP	SELECTOR	0	IRComp
PFCOR	QUANT	5.00000E+001	PF Corr. (ohm)
CYCLES	IQUANT	101	C&ycles (#)
ELECTRODETYPE	SELECTOR	0	Electrode Type
STRIPPING	TOGGLE	F	Used for Stripping
POLARITY	TOGGLE	F	Signal Polarity
LINEFREQ	IQUANT	60	Line Frequency (Hz)
INTPERIOD	QUANT	3.3334E-005	Integration Period (s)
SEQUENCER	TOGGLE	TRUE	Run as Sequence
PSTATMODEL	IQUANT	4	Pstat Model
PSTATSECTION	LABEL	REF600-24079	Pstat Section
PSTATSERIALNO	LABEL	24079	Pstat Serial Number
CTRLMODE	IQUANT	1	Control Mode
ELECTROMETER	IQUANT	0	RE=0 or CS=1
IESTAB	IQUANT	2	I/E Stability
CASPEED	IQUANT	6	Control Amp Speed
CONVENTION	IQUANT	1	Current Convention
ICHRANGE	IQUANT	2	Ich Range
ICHRANGEMODE	TOGGLE	F	Ich Auto Range
ICHOFFSETENABLE	TOGGLE	F	Ich Offset Enable
ICHOFFSET	QUANT	0	Ich Offset (V)
ICHFILTER	IQUANT	2	Ich Filter
VCHRANGE	IQUANT	2	Vch Range
VCHRANGEMODE	TOGGLE	F	Vch Auto Range
VCHOFFSETENABLE	TOGGLE	F	Vch Offset Enable
VCHOFFSET	QUANT	0	Vch Offset (V)
VCHFILTER	IQUANT	2	Vch Filter
ACHRANGE	IQUANT	2	Ach Range
ACHOFFSETENABLE	TOGGLE	F	Ach Offset Enable
ACHOFFSET	QUANT	0	Ach Offset (V)
ACHFILTER	IQUANT	1	Ach Filter
IERANGELOWERLIMIT	IQUANT	1	I/E Range Lower Limit
IERANGEMODE	TOGGLE	F	I/E AutoRange
IERANGE	IQUANT	6	I/E Range
POSFEEDENABLE	TOGGLE	F	Positive Feedback IR Comp
POSFEEDRESISTANCE	QUANT	0	Positive Feedback Resistance (ohm)
ACHSELECT	IQUANT	0	Ach Select
SENSECABLEID	IQUANT	13	Sense Cable ID
PWRCABLEID	IQUANT	13	Power Cable ID
DCCALDATE	LABEL	6/30/2020	DC Calibration Date
ACCALDATE	LABEL	6/30/2020	AC Calibration Date
THERMOSELECT	IQUANT	1	Thermo Select
FRAMEWORKVERSION	LABEL	7.8.2	Framework Version
INSTRUMENTVERSION	LABEL	4.40	Instrument Version
CURVE	TABLE	101
	Pt	T	Vfwd	Vrev	Vstep	Ifwd	Irev	Idif	Sig	Ach	IERange	Over	Temp
	#	s	V	V	V	A	A	A	V	V	#	bits	deg C
	0	0.1	-3.25078E-001	-3.74972E-001	-3.50025E-001	-3.03453E-008	-7.28157E-008	4.24704E-008	-3.75000E-001	4.22039E-004	6	..........a	-327.68
	1	0.2	-3.22995E-001	-3.73017E-001	-3.48006E-001	-1.76227E-008	-6.73843E-008	4.97617E-008	-3.73000E-001	4.18373E-004	6	..........a	-327.68
	2	0.3	-3.21042E-001	-3.70983E-001	-3.46012E-001	-1.49873E-008	-6.50010E-008	5.00137E-008	-3.71000E-001	4.24873E-004	6	..........a	-327.68
	3	0.4	-3.18980E-001	-3.69123E-001	-3.44052E-001	-1.33108E-008	-6.32518E-008	4.99410E-008	-3.69000E-001	4.22873E-004	6	..........a	-327.68
	4	0.5	-3.17104E-001	-3.66980E-001	-3.42042E-001	-1.21733E-008	-6.20753E-008	4.99020E-008	-3.67000E-001	4.16373E-004	6	..........a	-327.68
	5	0.6	-3.14968E-001	-3.65039E-001	-3.40003E-001	-1.12295E-008	-6.05481E-008	4.93186E-008	-3.65000E-001	4.18373E-004	6	..........a	-327.68
	6	0.7	-3.13094E-001	-3.62969E-001	-3.38032E-001	-1.03274E-008	-5.95920E-008	4.92646E-008	-3.63000E-001	4.22039E-004	6	..........a	-327.68
	7	0.8	-3.10994E-001	-3.61087E-001	-3.36040E-001	-9.52229E-009	-5.82435E-008	4.87212E-008	-3.61000E-001	4.13873E-004	6	..........a	-327.68
	8	0.9	-3.09086E-001	-3.58977E-001	-3.34031E-001	-8.98989E-009	-5.73834E-008	4.83935E-008	-3.59000E-001	4.32206E-004	6	..........a	-327.68
	9	1	-3.06972E-001	-3.57072E-001	-3.32022E-001	-8.24746E-009	-5.64756E-008	4.82281E-008	-3.57000E-001	4.25873E-004	6	..........a	-327.68
	10	1.1	-3.05109E-001	-3.54987E-001	-3.30048E-001	-7.52104E-009	-5.55285E-008	4.80074E-008	-3.55000E-001	4.16206E-004	6	..........a	-327.68
	11	1.2	-3.03032E-001	-3.53060E-001	-3.28046E-001	-6.73627E-009	-5.45317E-008	4.77954E-008	-3.53000E-001	4.19206E-004	6	..........a	-327.68
	12	1.3	-3.01090E-001	-3.50975E-001	-3.26033E-001	-6.17220E-009	-5.36703E-008	4.74981E-008	-3.51000E-001	4.20206E-004	6	..........a	-327.68
	13	1.4	-2.99005E-001	-3.49035E-001	-3.24020E-001	-5.28409E-009	-5.29755E-008	4.76914E-008	-3.49000E-001	4.19373E-004	6	..........a	-327.68
	14	1.5	-2.97065E-001	-3.47019E-001	-3.22042E-001	-4.78136E-009	-5.20217E-008	4.72403E-008	-3.47000E-001	4.18206E-004	6	..........a	-327.68
	15	1.6	-2.94995E-001	-3.45130E-001	-3.20062E-001	-4.17695E-009	-5.13823E-008	4.72053E-008	-3.45000E-001	4.19373E-004	6	..........a	-327.68
	16	1.7	-2.93103E-001	-3.42984E-001	-3.18043E-001	-3.44485E-009	-5.06589E-008	4.72140E-008	-3.43000E-001	4.21539E-004	6	..........a	-327.68
	17	1.8	-2.90951E-001	-3.41095E-001	-3.16023E-001	-2.79444E-009	-5.00811E-008	4.72867E-008	-3.41000E-001	4.19873E-004	6	..........a	-327.68
	18	1.9	-2.89108E-001	-3.38993E-001	-3.14050E-001	-2.03268E-009	-4.93250E-008	4.72924E-008	-3.39000E-001	4.15873E-004	6	..........a	-327.68
	19	2	-2.87001E-001	-3.37096E-001	-3.12049E-001	-1.20057E-009	-4.86979E-008	4.74974E-008	-3.37000E-001	4.14373E-004	6	..........a	-327.68
	20	2.1	-2.85103E-001	-3.35012E-001	-3.10058E-001	-6.22496E-010	-4.81179E-008	4.74954E-008	-3.35000E-001	4.20706E-004	6	..........a	-327.68
	21	2.2	-2.82974E-001	-3.33088E-001	-3.08031E-001	-3.84216E-011	-4.75465E-008	4.75080E-008	-3.33000E-001	4.20206E-004	6	..........a	-327.68
	22	2.3	-2.81125E-001	-3.30979E-001	-3.06052E-001	7.86350E-010	-4.68744E-008	4.76607E-008	-3.31000E-001	4.20873E-004	6	..........a	-327.68
	23	2.4	-2.79045E-001	-3.29101E-001	-3.04073E-001	1.35976E-009	-4.65083E-008	4.78681E-008	-3.29000E-001	4.17373E-004	6	..........a	-327.68
	24	2.5	-2.77108E-001	-3.27015E-001	-3.02062E-001	2.13052E-009	-4.58813E-008	4.80118E-008	-3.27000E-001	4.18373E-004	6	..........a	-327.68
	25	2.6	-2.74988E-001	-3.25064E-001	-3.00026E-001	2.68359E-009	-4.54892E-008	4.81728E-008	-3.25000E-001	4.21206E-004	6	..........a	-327.68
	26	2.7	-2.73100E-001	-3.23017E-001	-2.98058E-001	3.15632E-009	-4.50848E-008	4.82411E-008	-3.23000E-001	4.19039E-004	6	..........a	-327.68
	27	2.8	-2.71036E-001	-3.21033E-001	-2.96034E-001	3.85241E-009	-4.47684E-008	4.86209E-008	-3.21000E-001	4.16873E-004	6	..........a	-327.68
	28	2.9	-2.69091E-001	-3.18977E-001	-2.94034E-001	4.58750E-009	-4.43164E-008	4.89039E-008	-3.19000E-001	4.17206E-004	6	..........a	-327.68
	29	3	-2.66944E-001	-3.17106E-001	-2.92025E-001	5.27592E-009	-4.40000E-008	4.92759E-008	-3.17000E-001	4.18873E-004	6	..........a	-327.68
	30	3.1	-2.65128E-001	-3.15009E-001	-2.90068E-001	5.80499E-009	-4.37080E-008	4.95130E-008	-3.15000E-001	4.17206E-004	6	..........a	-327.68
	31	3.2	-2.63012E-001	-3.13088E-001	-2.88050E-001	6.47007E-009	-4.32683E-008	4.97383E-008	-3.13000E-001	4.20039E-004	6	..........a	-327.68
	32	3.3	-2.61113E-001	-3.10982E-001	-2.86047E-001	7.13983E-009	-4.30226E-008	5.01624E-008	-3.11000E-001	4.10373E-004	6	..........a	-327.68
	33	3.4	-2.58956E-001	-3.09065E-001	-2.84011E-001	7.56488E-009	-4.29706E-008	5.05354E-008	-3.09000E-001	4.21039E-004	6	..........a	-327.68
	34	3.5	-2.57112E-001	-3.06998E-001	-2.82055E-001	8.38398E-009	-4.24508E-008	5.08348E-008	-3.07000E-001	4.15873E-004	6	..........a	-327.68
	35	3.6	-2.55064E-001	-3.05107E-001	-2.80085E-001	8.84004E-009	-4.23805E-008	5.12205E-008	-3.05000E-001	4.17039E-004	6	..........a	-327.68
	36	3.7	-2.53115E-001	-3.03011E-001	-2.78063E-001	9.35344E-009	-4.22128E-008	5.15662E-008	-3.03000E-001	4.12873E-004	6	..........a	-327.68
	37	3.8	-2.50968E-001	-3.01089E-001	-2.76028E-001	9.91685E-009	-4.19304E-008	5.18473E-008	-3.01000E-001	4.13373E-004	6	..........a	-327.68
	38	3.9	-2.49098E-001	-2.99000E-001	-2.74049E-001	1.03982E-008	-4.19481E-008	5.23463E-008	-2.99000E-001	4.12039E-004	6	..........a	-327.68
	39	4	-2.47035E-001	-2.97070E-001	-2.72053E-001	1.07640E-008	-4.17781E-008	5.25420E-008	-2.97000E-001	4.07706E-004	6	..........a	-327.68
	40	4.1	-2.45093E-001	-2.95000E-001	-2.70047E-001	1.12944E-008	-4.15807E-008	5.28751E-008	-2.95000E-001	4.10873E-004	6	..........a	-327.68
	41	4.2	-2.42983E-001	-2.93101E-001	-2.68042E-001	1.14940E-008	-4.14194E-008	5.29134E-008	-2.93000E-001	4.16706E-004	6	..........a	-327.68
	42	4.3	-2.41124E-001	-2.90953E-001	-2.66038E-001	1.16757E-008	-4.10830E-008	5.27587E-008	-2.91000E-001	4.09206E-004	6	..........a	-327.68
	43	4.4	-2.39049E-001	-2.89103E-001	-2.64076E-001	1.19884E-008	-4.07529E-008	5.27414E-008	-2.89000E-001	4.13206E-004	6	..........a	-327.68
	44	4.5	-2.37110E-001	-2.86986E-001	-2.62048E-001	1.19854E-008	-4.06483E-008	5.26337E-008	-2.87000E-001	4.09373E-004	6	..........a	-327.68
	45	4.6	-2.34961E-001	-2.85091E-001	-2.60026E-001	1.22285E-008	-4.02452E-008	5.24737E-008	-2.85000E-001	4.12206E-004	6	..........a	-327.68
	46	4.7	-2.33107E-001	-2.82949E-001	-2.58028E-001	1.25405E-008	-4.00685E-008	5.26090E-008	-2.83000E-001	4.15206E-004	6	..........a	-327.68
	47	4.8	-2.31039E-001	-2.81124E-001	-2.56081E-001	1.24048E-008	-3.98485E-008	5.22533E-008	-2.81000E-001	4.13539E-004	6	..........a	-327.68
	48	4.9	-2.29109E-001	-2.79042E-001	-2.54075E-001	1.26465E-008	-3.91031E-008	5.17496E-008	-2.79000E-001	4.06206E-004	6	..........a	-327.68
	49	5	-2.26965E-001	-2.77092E-001	-2.52028E-001	1.27032E-008	-3.87090E-008	5.14122E-008	-2.77000E-001	4.05039E-004	6	..........a	-327.68
	50	5.1	-2.25104E-001	-2.74980E-001	-2.50042E-001	1.26742E-008	-3.82099E-008	5.08841E-008	-2.75000E-001	4.08039E-004	6	..........a	-327.68
	51	5.2	-2.23030E-001	-2.73085E-001	-2.48057E-001	1.26909E-008	-3.77539E-008	5.04447E-008	-2.73000E-001	4.05873E-004	6	..........a	-327.68
	52	5.3	-2.21100E-001	-2.71034E-001	-2.46067E-001	1.27562E-008	-3.71848E-008	4.99410E-008	-2.71000E-001	4.01039E-004	6	..........a	-327.68
	53	5.4	-2.18987E-001	-2.69071E-001	-2.44029E-001	1.28442E-008	-3.67238E-008	4.95680E-008	-2.69000E-001	4.08873E-004	6	..........a	-327.68
	54	5.5	-2.17125E-001	-2.66936E-001	-2.42030E-001	1.28202E-008	-3.62427E-008	4.90629E-008	-2.67000E-001	3.99039E-004	6	..........a	-327.68
	55	5.6	-2.15030E-001	-2.65128E-001	-2.40079E-001	1.26579E-008	-3.56626E-008	4.83205E-008	-2.65000E-001	4.01873E-004	6	..........a	-327.68
	56	5.7	-2.13096E-001	-2.63003E-001	-2.38049E-001	1.26989E-008	-3.51239E-008	4.78228E-008	-2.63000E-001	4.01039E-004	6	..........a	-327.68
	57	5.8	-2.10959E-001	-2.61104E-001	-2.36032E-001	1.29372E-008	-3.45935E-008	4.75307E-008	-2.61000E-001	4.00706E-004	6	..........a	-327.68
	58	5.9	-2.09112E-001	-2.58971E-001	-2.34041E-001	1.26872E-008	-3.40574E-008	4.67446E-008	-2.59000E-001	4.02039E-004	6	..........a	-327.68
	59	6	-2.07038E-001	-2.57103E-001	-2.32071E-001	1.27545E-008	-3.31363E-008	4.58908E-008	-2.57000E-001	4.03706E-004	6	..........a	-327.68
	60	6.1	-2.05109E-001	-2.55045E-001	-2.30077E-001	1.29112E-008	-3.26676E-008	4.55788E-008	-2.55000E-001	4.00706E-004	6	..........a	-327.68
	61	6.2	-2.02961E-001	-2.53111E-001	-2.28036E-001	1.26719E-008	-3.20525E-008	4.47244E-008	-2.53000E-001	4.02039E-004	6	..........a	-327.68
	62	6.3	-2.01116E-001	-2.50989E-001	-2.26052E-001	1.28792E-008	-3.16401E-008	4.45193E-008	-2.51000E-001	4.01706E-004	6	..........a	-327.68
	63	6.4	-1.99048E-001	-2.49087E-001	-2.24068E-001	1.29109E-008	-3.09640E-008	4.38749E-008	-2.49000E-001	4.01373E-004	6	..........a	-327.68
	64	6.5	-1.97111E-001	-2.47002E-001	-2.22056E-001	1.30109E-008	-3.04256E-008	4.34365E-008	-2.47000E-001	4.04373E-004	6	..........a	-327.68
	65	6.6	-1.94990E-001	-2.45046E-001	-2.20018E-001	1.31133E-008	-2.99209E-008	4.30341E-008	-2.45000E-001	4.02373E-004	6	..........a	-327.68
	66	6.7	-1.93104E-001	-2.42984E-001	-2.18044E-001	1.33543E-008	-2.92245E-008	4.25788E-008	-2.43000E-001	4.05206E-004	6	..........a	-327.68
	67	6.8	-1.91094E-001	-2.41128E-001	-2.16111E-001	1.32163E-008	-2.88864E-008	4.21027E-008	-2.41000E-001	4.06373E-004	6	..........a	-327.68
	68	6.9	-1.89107E-001	-2.39023E-001	-2.14065E-001	1.33216E-008	-2.83497E-008	4.16713E-008	-2.39000E-001	4.11206E-004	6	..........a	-327.68
	69	7	-1.86960E-001	-2.37057E-001	-2.12009E-001	1.32913E-008	-2.79216E-008	4.12129E-008	-2.37000E-001	4.11039E-004	6	..........a	-327.68
	70	7.1	-1.85123E-001	-2.34970E-001	-2.10046E-001	1.33133E-008	-2.73256E-008	4.06388E-008	-2.35000E-001	4.04706E-004	6	..........a	-327.68
	71	7.2	-1.83054E-001	-2.33102E-001	-2.08078E-001	1.36130E-008	-2.69532E-008	4.05662E-008	-2.33000E-001	4.06873E-004	6	..........a	-327.68
	72	7.3	-1.81105E-001	-2.31027E-001	-2.06066E-001	1.35953E-008	-2.64328E-008	4.00281E-008	-2.31000E-001	4.07873E-004	6	..........a	-327.68
	73	7.4	-1.78957E-001	-2.29115E-001	-2.04036E-001	1.37477E-008	-2.57867E-008	3.95344E-008	-2.29000E-001	4.03373E-004	6	..........a	-327.68
	74	7.5	-1.77120E-001	-2.26977E-001	-2.02048E-001	1.38037E-008	-2.56807E-008	3.94844E-008	-2.27000E-001	4.06706E-004	6	..........a	-327.68
	75	7.6	-1.75069E-001	-2.25103E-001	-2.00086E-001	1.39334E-008	-2.52176E-008	3.91510E-008	-2.25000E-001	4.05039E-004	6	..........a	-327.68
	76	7.7	-1.73115E-001	-2.23000E-001	-1.98058E-001	1.42334E-008	-2.47469E-008	3.89803E-008	-2.23000E-001	3.99706E-004	6	..........a	-327.68
	77	7.8	-1.70963E-001	-2.21066E-001	-1.96015E-001	1.43461E-008	-2.44585E-008	3.88046E-008	-2.21000E-001	4.05039E-004	6	..........a	-327.68
	78	7.9	-1.69101E-001	-2.18997E-001	-1.94049E-001	1.43884E-008	-2.43008E-008	3.86893E-008	-2.19000E-001	4.03206E-004	6	..........a	-327.68
	79	8	-1.67035E-001	-2.17133E-001	-1.92084E-001	1.46024E-008	-2.38021E-008	3.84046E-008	-2.17000E-001	4.11873E-004	6	..........a	-327.68
	80	8.1	-1.65040E-001	-2.15014E-001	-1.90027E-001	1.46548E-008	-2.34791E-008	3.81339E-008	-2.15000E-001	4.11206E-004	6	..........a	-327.68
	81	8.2	-1.62936E-001	-2.13071E-001	-1.88003E-001	1.48438E-008	-2.30457E-008	3.78895E-008	-2.13000E-001	4.11039E-004	6	..........a	-327.68
	82	8.3	-1.61118E-001	-2.10987E-001	-1.86052E-001	1.50678E-008	-2.28157E-008	3.78835E-008	-2.11000E-001	4.07373E-004	6	..........a	-327.68
	83	8.4	-1.59046E-001	-2.09113E-001	-1.84079E-001	1.50655E-008	-2.24863E-008	3.75518E-008	-2.09000E-001	4.13039E-004	6	..........a	-327.68
	84	8.5	-1.57104E-001	-2.07023E-001	-1.82063E-001	1.52065E-008	-2.24059E-008	3.76125E-008	-2.07000E-001	4.06539E-004	6	..........a	-327.68
	85	8.6	-1.54957E-001	-2.05094E-001	-1.80026E-001	1.54155E-008	-2.20589E-008	3.74744E-008	-2.05000E-001	4.05039E-004	6	..........a	-327.68
	86	8.7	-1.53126E-001	-2.02971E-001	-1.78048E-001	1.56226E-008	-2.17532E-008	3.73758E-008	-2.03000E-001	3.96039E-004	6	..........a	-327.68
	87	8.8	-1.51064E-001	-2.01112E-001	-1.76088E-001	1.56566E-008	-2.13658E-008	3.70224E-008	-2.01000E-001	4.10373E-004	6	..........a	-327.68
	88	8.9	-1.49112E-001	-1.99025E-001	-1.74068E-001	1.56346E-008	-2.13728E-008	3.70074E-008	-1.99000E-001	4.06873E-004	6	..........a	-327.68
	89	9	-1.46984E-001	-1.97086E-001	-1.72035E-001	1.60080E-008	-2.10548E-008	3.70627E-008	-1.97000E-001	4.08206E-004	6	..........a	-327.68
	90	9.1	-1.45097E-001	-1.95014E-001	-1.70055E-001	1.60083E-008	-2.10524E-008	3.70607E-008	-1.95000E-001	4.03206E-004	6	..........a	-327.68
	91	9.2	-1.43042E-001	-1.93067E-001	-1.68054E-001	1.62050E-008	-2.07417E-008	3.69467E-008	-1.93000E-001	3.97873E-004	6	..........a	-327.68
	92	9.3	-1.41102E-001	-1.91051E-001	-1.66077E-001	1.64253E-008	-2.05217E-008	3.69470E-008	-1.91000E-001	4.09206E-004	6	..........a	-327.68
	93	9.4	-1.38933E-001	-1.89118E-001	-1.64025E-001	1.66274E-008	-2.02363E-008	3.68637E-008	-1.89000E-001	4.15706E-004	6	..........a	-327.68
	94	9.5	-1.37119E-001	-1.86981E-001	-1.62050E-001	1.67110E-008	-2.01470E-008	3.68580E-008	-1.87000E-001	4.00706E-004	6	..........a	-327.68
	95	9.6	-1.35053E-001	-1.85106E-001	-1.60079E-001	1.66764E-008	-1.98659E-008	3.65423E-008	-1.85000E-001	4.04039E-004	6	..........a	-327.68
	96	9.7	-1.33114E-001	-1.83025E-001	-1.58070E-001	1.69791E-008	-1.96342E-008	3.66133E-008	-1.83000E-001	4.01539E-004	6	..........a	-327.68
	97	9.8	-1.30972E-001	-1.81095E-001	-1.56034E-001	1.70531E-008	-1.93976E-008	3.64506E-008	-1.81000E-001	3.98873E-004	6	..........a	-327.68
	98	9.9	-1.29110E-001	-1.78975E-001	-1.54043E-001	1.72508E-008	-1.93525E-008	3.66033E-008	-1.79000E-001	4.14539E-004	6	..........a	-327.68
	99	10	-1.27079E-001	-1.77117E-001	-1.52098E-001	1.73378E-008	-1.92359E-008	3.65737E-008	-1.77000E-001	4.01873E-004	6	..........a	-327.68
	100	10.1	-1.25122E-001	-1.75044E-001	-1.50083E-001	1.77172E-008	-1.92135E-008	3.69307E-008	-1.75000E-001	4.10706E-004	6	..........a	-327.68
