EXPLAIN
TAG	SQUARE_WAVE
TITLE	LABEL	Square Wave Voltammetry	Test Identifier
DATE	LABEL	8/31/2020	Date
TIME	LABEL	12:25:04	Time
NOTES	NOTES	1	Notes...
	
PSTAT	PSTAT	REF600-24079	Potentiostat
VINIT	QUANT	-3.50000E-001	Initial E (V)
VFINAL	QUANT	-1.50000E-001	Final E (V)
STEPSIZE	QUANT	2.00000E+000	Step Size (mV)
TIMERRES	QUANT	3.33340E-005	&Timer Resolution
FREQUENCY	QUANT	1.00000E+001	Frequency (Hz)
PULSESIZE	QUANT	2.50000E+001	Pulse Size E (mV)
PULSEON	QUANT	1.00000E-001	Pulse &Time (s)
NOISEREJECT	TOGGLE	F	Noise Rejection
AREA	QUANT	2.00000E-002	Sample Area (cm^2)
IMODE	SELECTOR	1	I/E Range Mode
IRANGE	QUANT	1.00000E-003	Max Current (mA)
EQDELAY	IQUANT	10	Equil. Time (s)
IRCOMP	SELECTOR	0	IRComp
PFCOR	QUANT	5.00000E+001	PF Corr. (ohm)
CYCLES	IQUANT	101	C&ycles (#)
ELECTRODETYPE	SELECTOR	0	Electrode Type
STRIPPING	TOGGLE	F	Used for Stripping
POLARITY	TOGGLE	F	Signal Polarity
LINEFREQ	IQUANT	60	Line Frequency (Hz)
INTPERIOD	QUANT	3.3334E-005	Integration Period (s)
SEQUENCER	TOGGLE	TRUE	Run as Sequence
PSTATMODEL	IQUANT	4	Pstat Model
PSTATSECTION	LABEL	REF600-24079	Pstat Section
PSTATSERIALNO	LABEL	24079	Pstat Serial Number
CTRLMODE	IQUANT	1	Control Mode
ELECTROMETER	IQUANT	0	RE=0 or CS=1
IESTAB	IQUANT	2	I/E Stability
CASPEED	IQUANT	6	Control Amp Speed
CONVENTION	IQUANT	1	Current Convention
ICHRANGE	IQUANT	2	Ich Range
ICHRANGEMODE	TOGGLE	F	Ich Auto Range
ICHOFFSETENABLE	TOGGLE	F	Ich Offset Enable
ICHOFFSET	QUANT	0	Ich Offset (V)
ICHFILTER	IQUANT	2	Ich Filter
VCHRANGE	IQUANT	2	Vch Range
VCHRANGEMODE	TOGGLE	F	Vch Auto Range
VCHOFFSETENABLE	TOGGLE	F	Vch Offset Enable
VCHOFFSET	QUANT	0	Vch Offset (V)
VCHFILTER	IQUANT	2	Vch Filter
ACHRANGE	IQUANT	2	Ach Range
ACHOFFSETENABLE	TOGGLE	F	Ach Offset Enable
ACHOFFSET	QUANT	0	Ach Offset (V)
ACHFILTER	IQUANT	1	Ach Filter
IERANGELOWERLIMIT	IQUANT	1	I/E Range Lower Limit
IERANGEMODE	TOGGLE	F	I/E AutoRange
IERANGE	IQUANT	6	I/E Range
POSFEEDENABLE	TOGGLE	F	Positive Feedback IR Comp
POSFEEDRESISTANCE	QUANT	0	Positive Feedback Resistance (ohm)
ACHSELECT	IQUANT	0	Ach Select
SENSECABLEID	IQUANT	13	Sense Cable ID
PWRCABLEID	IQUANT	13	Power Cable ID
DCCALDATE	LABEL	6/30/2020	DC Calibration Date
ACCALDATE	LABEL	6/30/2020	AC Calibration Date
THERMOSELECT	IQUANT	1	Thermo Select
FRAMEWORKVERSION	LABEL	7.8.2	Framework Version
INSTRUMENTVERSION	LABEL	4.40	Instrument Version
CURVE	TABLE	101
	Pt	T	Vfwd	Vrev	Vstep	Ifwd	Irev	Idif	Sig	Ach	IERange	Over	Temp
	#	s	V	V	V	A	A	A	V	V	#	bits	deg C
	0	0.1	-3.24926E-001	-3.74935E-001	-3.49930E-001	-1.03821E-008	-3.81183E-008	2.77362E-008	-3.75000E-001	2.63706E-004	6	..........a	-327.68
	1	0.2	-3.22891E-001	-3.72949E-001	-3.47920E-001	1.01005E-009	-3.38374E-008	3.48474E-008	-3.73000E-001	2.53873E-004	6	..........a	-327.68
	2	0.3	-3.20942E-001	-3.70823E-001	-3.45882E-001	3.36734E-009	-3.23899E-008	3.57572E-008	-3.71000E-001	2.45039E-004	6	..........a	-327.68
	3	0.4	-3.18983E-001	-3.68999E-001	-3.43991E-001	4.76652E-009	-3.13094E-008	3.60759E-008	-3.69000E-001	2.46873E-004	6	..........a	-327.68
	4	0.5	-3.16871E-001	-3.66967E-001	-3.41919E-001	5.86300E-009	-3.07647E-008	3.66277E-008	-3.67000E-001	2.55206E-004	6	..........a	-327.68
	5	0.6	-3.14904E-001	-3.64943E-001	-3.39923E-001	7.13983E-009	-3.03199E-008	3.74598E-008	-3.65000E-001	2.39873E-004	6	..........a	-327.68
	6	0.7	-3.12963E-001	-3.62859E-001	-3.37911E-001	8.23696E-009	-3.03346E-008	3.85716E-008	-3.63000E-001	2.38373E-004	6	..........a	-327.68
	7	0.8	-3.10950E-001	-3.60958E-001	-3.35954E-001	9.29443E-009	-3.02066E-008	3.95010E-008	-3.61000E-001	2.41706E-004	6	..........a	-327.68
	8	0.9	-3.08885E-001	-3.58931E-001	-3.33908E-001	1.02939E-008	-2.99716E-008	4.02655E-008	-3.59000E-001	2.35373E-004	6	..........a	-327.68
	9	1	-3.06868E-001	-3.56945E-001	-3.31906E-001	1.16057E-008	-3.01539E-008	4.17596E-008	-3.57000E-001	2.43539E-004	6	..........a	-327.68
	10	1.1	-3.04960E-001	-3.54887E-001	-3.29923E-001	1.26609E-008	-3.01939E-008	4.28548E-008	-3.55000E-001	2.30539E-004	6	..........a	-327.68
	11	1.2	-3.02959E-001	-3.52958E-001	-3.27958E-001	1.42834E-008	-3.04666E-008	4.47500E-008	-3.53000E-001	2.36706E-004	6	..........a	-327.68
	12	1.3	-3.00937E-001	-3.50926E-001	-3.25931E-001	1.56722E-008	-3.05820E-008	4.62542E-008	-3.51000E-001	2.39706E-004	6	..........a	-327.68
	13	1.4	-2.98904E-001	-3.48942E-001	-3.23923E-001	1.73558E-008	-3.12941E-008	4.86499E-008	-3.49000E-001	2.42706E-004	6	..........a	-327.68
	14	1.5	-2.96958E-001	-3.46906E-001	-3.21932E-001	1.91057E-008	-3.18731E-008	5.09788E-008	-3.47000E-001	2.47539E-004	6	..........a	-327.68
	15	1.6	-2.94934E-001	-3.44999E-001	-3.19967E-001	2.09179E-008	-3.25156E-008	5.34335E-008	-3.45000E-001	2.46039E-004	6	..........a	-327.68
	16	1.7	-2.92795E-001	-3.42955E-001	-3.17875E-001	2.28665E-008	-3.33773E-008	5.62438E-008	-3.43000E-001	2.52706E-004	6	..........a	-327.68
	17	1.8	-2.90839E-001	-3.40933E-001	-3.15886E-001	2.52425E-008	-3.43895E-008	5.96319E-008	-3.41000E-001	2.51873E-004	6	..........a	-327.68
	18	1.9	-2.88974E-001	-3.38877E-001	-3.13926E-001	2.75291E-008	-3.56179E-008	6.31470E-008	-3.39000E-001	2.56706E-004	6	..........a	-327.68
	19	2	-2.86925E-001	-3.36945E-001	-3.11935E-001	3.00344E-008	-3.69878E-008	6.70222E-008	-3.37000E-001	2.67873E-004	6	..........a	-327.68
	20	2.1	-2.84908E-001	-3.34938E-001	-3.09923E-001	3.28238E-008	-3.83880E-008	7.12117E-008	-3.35000E-001	2.59873E-004	6	..........a	-327.68
	21	2.2	-2.82855E-001	-3.32868E-001	-3.07861E-001	3.56358E-008	-4.01492E-008	7.57850E-008	-3.33000E-001	2.62873E-004	6	..........a	-327.68
	22	2.3	-2.81010E-001	-3.30859E-001	-3.05935E-001	3.86995E-008	-4.20071E-008	8.07066E-008	-3.31000E-001	2.64873E-004	6	..........a	-327.68
	23	2.4	-2.78936E-001	-3.28961E-001	-3.03948E-001	4.19066E-008	-4.43611E-008	8.62676E-008	-3.29000E-001	2.68873E-004	6	..........a	-327.68
	24	2.5	-2.76945E-001	-3.26936E-001	-3.01940E-001	4.51490E-008	-4.66517E-008	9.18007E-008	-3.27000E-001	2.62206E-004	6	..........a	-327.68
	25	2.6	-2.74895E-001	-3.24940E-001	-2.99917E-001	4.85321E-008	-4.90913E-008	9.76234E-008	-3.25000E-001	2.63706E-004	6	..........a	-327.68
	26	2.7	-2.72929E-001	-3.22902E-001	-2.97916E-001	5.21099E-008	-5.17050E-008	1.03815E-007	-3.23000E-001	2.67873E-004	6	..........a	-327.68
	27	2.8	-2.70934E-001	-3.20913E-001	-2.95923E-001	5.55006E-008	-5.46687E-008	1.10169E-007	-3.21000E-001	2.61873E-004	6	..........a	-327.68
	28	2.9	-2.68938E-001	-3.18916E-001	-2.93927E-001	5.89557E-008	-5.78251E-008	1.16781E-007	-3.19000E-001	2.46873E-004	6	..........a	-327.68
	29	3	-2.66809E-001	-3.16908E-001	-2.91858E-001	6.24875E-008	-6.11452E-008	1.23633E-007	-3.17000E-001	2.58039E-004	6	..........a	-327.68
	30	3.1	-2.64975E-001	-3.14910E-001	-2.89943E-001	6.55526E-008	-6.45610E-008	1.30114E-007	-3.15000E-001	2.64373E-004	6	..........a	-327.68
	31	3.2	-2.62954E-001	-3.12971E-001	-2.87962E-001	6.88410E-008	-6.82374E-008	1.37078E-007	-3.13000E-001	2.57039E-004	6	..........a	-327.68
	32	3.3	-2.60882E-001	-3.10933E-001	-2.85908E-001	7.16657E-008	-7.19666E-008	1.43632E-007	-3.11000E-001	2.62539E-004	6	..........a	-327.68
	33	3.4	-2.58863E-001	-3.08941E-001	-2.83902E-001	7.41083E-008	-7.56964E-008	1.49805E-007	-3.09000E-001	2.68206E-004	6	..........a	-327.68
	34	3.5	-2.56927E-001	-3.06892E-001	-2.81909E-001	7.67033E-008	-7.93569E-008	1.56060E-007	-3.07000E-001	2.56706E-004	6	..........a	-327.68
	35	3.6	-2.54945E-001	-3.04985E-001	-2.79965E-001	7.86583E-008	-8.31607E-008	1.61819E-007	-3.05000E-001	2.59039E-004	6	..........a	-327.68
	36	3.7	-2.52915E-001	-3.02956E-001	-2.77935E-001	8.02385E-008	-8.63751E-008	1.66614E-007	-3.03000E-001	2.68206E-004	6	..........a	-327.68
	37	3.8	-2.50872E-001	-3.00960E-001	-2.75916E-001	8.15860E-008	-8.95878E-008	1.71174E-007	-3.01000E-001	2.69873E-004	6	..........a	-327.68
	38	3.9	-2.48932E-001	-2.98901E-001	-2.73917E-001	8.24004E-008	-9.29679E-008	1.75368E-007	-2.99000E-001	2.54206E-004	6	..........a	-327.68
	39	4	-2.46925E-001	-2.96958E-001	-2.71942E-001	8.28198E-008	-9.56306E-008	1.78450E-007	-2.97000E-001	2.65039E-004	6	..........a	-327.68
	40	4.1	-2.44921E-001	-2.94929E-001	-2.69925E-001	8.29738E-008	-9.81429E-008	1.81117E-007	-2.95000E-001	2.68206E-004	6	..........a	-327.68
	41	4.2	-2.42824E-001	-2.92837E-001	-2.67830E-001	8.27778E-008	-1.00198E-007	1.82976E-007	-2.93000E-001	2.65373E-004	6	..........a	-327.68
	42	4.3	-2.40992E-001	-2.90851E-001	-2.65922E-001	8.20347E-008	-1.01972E-007	1.84007E-007	-2.91000E-001	2.60206E-004	6	..........a	-327.68
	43	4.4	-2.38948E-001	-2.88986E-001	-2.63967E-001	8.07289E-008	-1.02938E-007	1.83667E-007	-2.89000E-001	2.72873E-004	6	..........a	-327.68
	44	4.5	-2.36920E-001	-2.86933E-001	-2.61927E-001	7.94484E-008	-1.03673E-007	1.83121E-007	-2.87000E-001	2.65873E-004	6	..........a	-327.68
	45	4.6	-2.34846E-001	-2.84949E-001	-2.59897E-001	7.77338E-008	-1.03891E-007	1.81625E-007	-2.85000E-001	2.60539E-004	6	..........a	-327.68
	46	4.7	-2.32916E-001	-2.82862E-001	-2.57889E-001	7.60183E-008	-1.03530E-007	1.79548E-007	-2.83000E-001	2.56373E-004	6	..........a	-327.68
	47	4.8	-2.30915E-001	-2.81010E-001	-2.55962E-001	7.36953E-008	-1.02687E-007	1.76383E-007	-2.81000E-001	2.54539E-004	6	..........a	-327.68
	48	4.9	-2.28897E-001	-2.78941E-001	-2.53919E-001	7.12797E-008	-1.01448E-007	1.72728E-007	-2.79000E-001	2.38873E-004	6	..........a	-327.68
	49	5	-2.26859E-001	-2.76965E-001	-2.51912E-001	6.91304E-008	-9.97441E-008	1.68874E-007	-2.77000E-001	2.56539E-004	6	..........a	-327.68
	50	5.1	-2.24924E-001	-2.74899E-001	-2.49911E-001	6.66611E-008	-9.73788E-008	1.64040E-007	-2.75000E-001	2.52873E-004	6	..........a	-327.68
	51	5.2	-2.22922E-001	-2.72955E-001	-2.47938E-001	6.39004E-008	-9.46545E-008	1.58555E-007	-2.73000E-001	2.59873E-004	6	..........a	-327.68
	52	5.3	-2.20923E-001	-2.70941E-001	-2.45932E-001	6.13934E-008	-9.17858E-008	1.53179E-007	-2.71000E-001	2.52539E-004	6	..........a	-327.68
	53	5.4	-2.18897E-001	-2.68940E-001	-2.43919E-001	5.87977E-008	-8.85017E-008	1.47299E-007	-2.69000E-001	2.51206E-004	6	..........a	-327.68
	54	5.5	-2.16988E-001	-2.66842E-001	-2.41915E-001	5.61737E-008	-8.48329E-008	1.41007E-007	-2.67000E-001	2.62039E-004	6	..........a	-327.68
	55	5.6	-2.14943E-001	-2.65001E-001	-2.39972E-001	5.36031E-008	-8.09837E-008	1.34587E-007	-2.65000E-001	2.59706E-004	6	..........a	-327.68
	56	5.7	-2.12921E-001	-2.62926E-001	-2.37923E-001	5.09991E-008	-7.73289E-008	1.28328E-007	-2.63000E-001	2.72706E-004	6	..........a	-327.68
	57	5.8	-2.10874E-001	-2.60921E-001	-2.35898E-001	4.87605E-008	-7.32681E-008	1.22029E-007	-2.61000E-001	2.70373E-004	6	..........a	-327.68
	58	5.9	-2.08928E-001	-2.58860E-001	-2.33894E-001	4.65075E-008	-6.93329E-008	1.15840E-007	-2.59000E-001	2.72039E-004	6	..........a	-327.68
	59	6	-2.06923E-001	-2.56956E-001	-2.31940E-001	4.42435E-008	-6.51644E-008	1.09408E-007	-2.57000E-001	2.66706E-004	6	..........a	-327.68
	60	6.1	-2.04882E-001	-2.54926E-001	-2.29904E-001	4.21073E-008	-6.10322E-008	1.03139E-007	-2.55000E-001	2.79706E-004	6	..........a	-327.68
	61	6.2	-2.02855E-001	-2.52951E-001	-2.27903E-001	4.02940E-008	-5.71890E-008	9.74831E-008	-2.53000E-001	2.66373E-004	6	..........a	-327.68
	62	6.3	-2.00958E-001	-2.50893E-001	-2.25925E-001	3.83395E-008	-5.35342E-008	9.18737E-008	-2.51000E-001	2.65539E-004	6	..........a	-327.68
	63	6.4	-1.98929E-001	-2.48951E-001	-2.23940E-001	3.66069E-008	-4.99978E-008	8.66047E-008	-2.49000E-001	2.71206E-004	6	..........a	-327.68
	64	6.5	-1.96924E-001	-2.46912E-001	-2.21918E-001	3.49177E-008	-4.65370E-008	8.14547E-008	-2.47000E-001	2.68206E-004	6	..........a	-327.68
	65	6.6	-1.94892E-001	-2.44930E-001	-2.19911E-001	3.34158E-008	-4.33743E-008	7.67901E-008	-2.45000E-001	2.73206E-004	6	..........a	-327.68
	66	6.7	-1.92934E-001	-2.42817E-001	-2.17875E-001	3.18783E-008	-4.02172E-008	7.20955E-008	-2.43000E-001	2.68039E-004	6	..........a	-327.68
	67	6.8	-1.90955E-001	-2.40964E-001	-2.15960E-001	3.05311E-008	-3.73778E-008	6.79090E-008	-2.41000E-001	2.71539E-004	6	..........a	-327.68
	68	6.9	-1.88862E-001	-2.38977E-001	-2.13919E-001	2.96284E-008	-3.46582E-008	6.42865E-008	-2.39000E-001	2.62706E-004	6	..........a	-327.68
	69	7	-1.86855E-001	-2.36942E-001	-2.11898E-001	2.84972E-008	-3.21255E-008	6.06227E-008	-2.37000E-001	2.55373E-004	6	..........a	-327.68
	70	7.1	-1.84956E-001	-2.34863E-001	-2.09910E-001	2.75208E-008	-2.99052E-008	5.74260E-008	-2.35000E-001	2.57373E-004	6	..........a	-327.68
	71	7.2	-1.82929E-001	-2.32940E-001	-2.07934E-001	2.65840E-008	-2.79620E-008	5.45459E-008	-2.33000E-001	2.55206E-004	6	..........a	-327.68
	72	7.3	-1.80899E-001	-2.30935E-001	-2.05917E-001	2.56425E-008	-2.58684E-008	5.15109E-008	-2.31000E-001	2.53873E-004	6	..........a	-327.68
	73	7.4	-1.78855E-001	-2.28926E-001	-2.03891E-001	2.50674E-008	-2.43685E-008	4.94360E-008	-2.29000E-001	2.58539E-004	6	..........a	-327.68
	74	7.5	-1.76950E-001	-2.26869E-001	-2.01909E-001	2.40936E-008	-2.27430E-008	4.68366E-008	-2.27000E-001	2.58873E-004	6	..........a	-327.68
	75	7.6	-1.74942E-001	-2.24952E-001	-1.99947E-001	2.38319E-008	-2.12905E-008	4.51224E-008	-2.25000E-001	2.57539E-004	6	..........a	-327.68
	76	7.7	-1.72944E-001	-2.22926E-001	-1.97935E-001	2.32559E-008	-2.00753E-008	4.33312E-008	-2.23000E-001	2.54373E-004	6	..........a	-327.68
	77	7.8	-1.70887E-001	-2.20929E-001	-1.95908E-001	2.26888E-008	-1.88972E-008	4.15860E-008	-2.21000E-001	2.63373E-004	6	..........a	-327.68
	78	7.9	-1.68937E-001	-2.18907E-001	-1.93922E-001	2.23454E-008	-1.78994E-008	4.02448E-008	-2.19000E-001	2.62873E-004	6	..........a	-327.68
	79	8	-1.66923E-001	-2.17022E-001	-1.91973E-001	2.19897E-008	-1.69409E-008	3.89306E-008	-2.17000E-001	2.60206E-004	6	..........a	-327.68
	80	8.1	-1.64780E-001	-2.14947E-001	-1.89863E-001	2.16497E-008	-1.59304E-008	3.75801E-008	-2.15000E-001	2.60373E-004	6	..........a	-327.68
	81	8.2	-1.62838E-001	-2.12875E-001	-1.87856E-001	2.14220E-008	-1.52647E-008	3.66867E-008	-2.13000E-001	2.53873E-004	6	..........a	-327.68
	82	8.3	-1.60953E-001	-2.10875E-001	-1.85914E-001	2.13006E-008	-1.44363E-008	3.57369E-008	-2.11000E-001	2.52039E-004	6	..........a	-327.68
	83	8.4	-1.58944E-001	-2.08946E-001	-1.83945E-001	2.09506E-008	-1.41432E-008	3.50938E-008	-2.09000E-001	2.56206E-004	6	..........a	-327.68
	84	8.5	-1.56903E-001	-2.06934E-001	-1.81919E-001	2.07442E-008	-1.35461E-008	3.42904E-008	-2.07000E-001	2.55539E-004	6	..........a	-327.68
	85	8.6	-1.54847E-001	-2.04858E-001	-1.79853E-001	2.07179E-008	-1.29701E-008	3.36880E-008	-2.05000E-001	2.64206E-004	6	..........a	-327.68
	86	8.7	-1.52973E-001	-2.02860E-001	-1.77917E-001	2.05589E-008	-1.23013E-008	3.28602E-008	-2.03000E-001	2.47539E-004	6	..........a	-327.68
	87	8.8	-1.50930E-001	-2.00953E-001	-1.75941E-001	2.06305E-008	-1.19929E-008	3.26235E-008	-2.01000E-001	2.51539E-004	6	..........a	-327.68
	88	8.9	-1.48933E-001	-1.98925E-001	-1.73929E-001	2.01041E-008	-1.16599E-008	3.17640E-008	-1.99000E-001	2.50873E-004	6	..........a	-327.68
	89	9	-1.46883E-001	-1.96921E-001	-1.71902E-001	2.03428E-008	-1.11548E-008	3.14977E-008	-1.97000E-001	2.56539E-004	6	..........a	-327.68
	90	9.1	-1.44924E-001	-1.94895E-001	-1.69910E-001	2.03988E-008	-1.08821E-008	3.12810E-008	-1.95000E-001	2.48039E-004	6	..........a	-327.68
	91	9.2	-1.42927E-001	-1.92923E-001	-1.67925E-001	2.03375E-008	-1.07535E-008	3.10910E-008	-1.93000E-001	2.57206E-004	6	..........a	-327.68
	92	9.3	-1.40928E-001	-1.90938E-001	-1.65933E-001	2.01045E-008	-1.03911E-008	3.04955E-008	-1.91000E-001	2.63706E-004	6	..........a	-327.68
	93	9.4	-1.38809E-001	-1.88863E-001	-1.63836E-001	2.02432E-008	-1.01764E-008	3.04195E-008	-1.89000E-001	2.58206E-004	6	..........a	-327.68
	94	9.5	-1.36965E-001	-1.86855E-001	-1.61910E-001	2.02038E-008	-9.92768E-009	3.01315E-008	-1.87000E-001	2.44539E-004	6	..........a	-327.68
	95	9.6	-1.34931E-001	-1.84947E-001	-1.59939E-001	2.02362E-008	-9.66398E-009	2.99001E-008	-1.85000E-001	2.65873E-004	6	..........a	-327.68
	96	9.7	-1.32862E-001	-1.82912E-001	-1.57887E-001	2.03498E-008	-9.45662E-009	2.98065E-008	-1.83000E-001	2.60539E-004	6	..........a	-327.68
	97	9.8	-1.30849E-001	-1.80895E-001	-1.55872E-001	2.05439E-008	-9.02690E-009	2.95708E-008	-1.81000E-001	2.57873E-004	6	..........a	-327.68
	98	9.9	-1.28917E-001	-1.78855E-001	-1.53886E-001	2.02138E-008	-9.06890E-009	2.92827E-008	-1.79000E-001	2.57706E-004	6	..........a	-327.68
	99	10	-1.26939E-001	-1.76939E-001	-1.51939E-001	2.03662E-008	-8.96322E-009	2.93294E-008	-1.77000E-001	2.56206E-004	6	..........a	-327.68
	100	10.1	-1.24896E-001	-1.74920E-001	-1.49908E-001	2.02378E-008	-8.60584E-009	2.88437E-008	-1.75000E-001	2.54206E-004	6	..........a	-327.68
