EXPLAIN
TAG	SQUARE_WAVE
TITLE	LABEL	Square Wave Voltammetry	Test Identifier
DATE	LABEL	8/31/2020	Date
TIME	LABEL	12:23:44	Time
NOTES	NOTES	1	Notes...
	
PSTAT	PSTAT	REF600-24079	Potentiostat
VINIT	QUANT	-3.50000E-001	Initial E (V)
VFINAL	QUANT	-1.50000E-001	Final E (V)
STEPSIZE	QUANT	2.00000E+000	Step Size (mV)
TIMERRES	QUANT	3.33340E-005	&Timer Resolution
FREQUENCY	QUANT	1.00000E+001	Frequency (Hz)
PULSESIZE	QUANT	2.50000E+001	Pulse Size E (mV)
PULSEON	QUANT	1.00000E-001	Pulse &Time (s)
NOISEREJECT	TOGGLE	F	Noise Rejection
AREA	QUANT	2.00000E-002	Sample Area (cm^2)
IMODE	SELECTOR	1	I/E Range Mode
IRANGE	QUANT	1.00000E-003	Max Current (mA)
EQDELAY	IQUANT	10	Equil. Time (s)
IRCOMP	SELECTOR	0	IRComp
PFCOR	QUANT	5.00000E+001	PF Corr. (ohm)
CYCLES	IQUANT	101	C&ycles (#)
ELECTRODETYPE	SELECTOR	0	Electrode Type
STRIPPING	TOGGLE	F	Used for Stripping
POLARITY	TOGGLE	F	Signal Polarity
LINEFREQ	IQUANT	60	Line Frequency (Hz)
INTPERIOD	QUANT	3.3334E-005	Integration Period (s)
SEQUENCER	TOGGLE	TRUE	Run as Sequence
PSTATMODEL	IQUANT	4	Pstat Model
PSTATSECTION	LABEL	REF600-24079	Pstat Section
PSTATSERIALNO	LABEL	24079	Pstat Serial Number
CTRLMODE	IQUANT	1	Control Mode
ELECTROMETER	IQUANT	0	RE=0 or CS=1
IESTAB	IQUANT	2	I/E Stability
CASPEED	IQUANT	6	Control Amp Speed
CONVENTION	IQUANT	1	Current Convention
ICHRANGE	IQUANT	2	Ich Range
ICHRANGEMODE	TOGGLE	F	Ich Auto Range
ICHOFFSETENABLE	TOGGLE	F	Ich Offset Enable
ICHOFFSET	QUANT	0	Ich Offset (V)
ICHFILTER	IQUANT	2	Ich Filter
VCHRANGE	IQUANT	2	Vch Range
VCHRANGEMODE	TOGGLE	F	Vch Auto Range
VCHOFFSETENABLE	TOGGLE	F	Vch Offset Enable
VCHOFFSET	QUANT	0	Vch Offset (V)
VCHFILTER	IQUANT	2	Vch Filter
ACHRANGE	IQUANT	2	Ach Range
ACHOFFSETENABLE	TOGGLE	F	Ach Offset Enable
ACHOFFSET	QUANT	0	Ach Offset (V)
ACHFILTER	IQUANT	1	Ach Filter
IERANGELOWERLIMIT	IQUANT	1	I/E Range Lower Limit
IERANGEMODE	TOGGLE	F	I/E AutoRange
IERANGE	IQUANT	6	I/E Range
POSFEEDENABLE	TOGGLE	F	Positive Feedback IR Comp
POSFEEDRESISTANCE	QUANT	0	Positive Feedback Resistance (ohm)
ACHSELECT	IQUANT	0	Ach Select
SENSECABLEID	IQUANT	13	Sense Cable ID
PWRCABLEID	IQUANT	13	Power Cable ID
DCCALDATE	LABEL	6/30/2020	DC Calibration Date
ACCALDATE	LABEL	6/30/2020	AC Calibration Date
THERMOSELECT	IQUANT	1	Thermo Select
FRAMEWORKVERSION	LABEL	7.8.2	Framework Version
INSTRUMENTVERSION	LABEL	4.40	Instrument Version
CURVE	TABLE	101
	Pt	T	Vfwd	Vrev	Vstep	Ifwd	Irev	Idif	Sig	Ach	IERange	Over	Temp
	#	s	V	V	V	A	A	A	V	V	#	bits	deg C
	0	0.1	-3.24843E-001	-3.74872E-001	-3.49857E-001	-1.10152E-008	-3.95498E-008	2.85346E-008	-3.75000E-001	3.95873E-004	6	..........a	-327.68
	1	0.2	-3.22839E-001	-3.72890E-001	-3.47864E-001	-2.39114E-010	-3.50725E-008	3.48334E-008	-3.73000E-001	3.84873E-004	6	..........a	-327.68
	2	0.3	-3.20876E-001	-3.70768E-001	-3.45822E-001	2.19453E-009	-3.35177E-008	3.57122E-008	-3.71000E-001	3.83206E-004	6	..........a	-327.68
	3	0.4	-3.18872E-001	-3.68904E-001	-3.43888E-001	3.67005E-009	-3.26742E-008	3.63443E-008	-3.69000E-001	3.91873E-004	6	..........a	-327.68
	4	0.5	-3.16831E-001	-3.66903E-001	-3.41867E-001	5.10157E-009	-3.19775E-008	3.70790E-008	-3.67000E-001	3.78873E-004	6	..........a	-327.68
	5	0.6	-3.14838E-001	-3.64895E-001	-3.39866E-001	6.03635E-009	-3.15424E-008	3.75788E-008	-3.65000E-001	3.77039E-004	6	..........a	-327.68
	6	0.7	-3.12905E-001	-3.62799E-001	-3.37852E-001	7.03448E-009	-3.13564E-008	3.83909E-008	-3.63000E-001	3.93706E-004	6	..........a	-327.68
	7	0.8	-3.10851E-001	-3.60867E-001	-3.35859E-001	8.40099E-009	-3.11200E-008	3.95210E-008	-3.61000E-001	3.76373E-004	6	..........a	-327.68
	8	0.9	-3.08776E-001	-3.58850E-001	-3.33813E-001	9.45945E-009	-3.12261E-008	4.06855E-008	-3.59000E-001	3.87206E-004	6	..........a	-327.68
	9	1	-3.06806E-001	-3.56833E-001	-3.31819E-001	1.03809E-008	-3.11140E-008	4.14949E-008	-3.57000E-001	3.78706E-004	6	..........a	-327.68
	10	1.1	-3.04858E-001	-3.54814E-001	-3.29836E-001	1.18314E-008	-3.12384E-008	4.30698E-008	-3.55000E-001	3.78873E-004	6	..........a	-327.68
	11	1.2	-3.02887E-001	-3.52878E-001	-3.27882E-001	1.33306E-008	-3.14668E-008	4.47974E-008	-3.53000E-001	3.81539E-004	6	..........a	-327.68
	12	1.3	-3.00876E-001	-3.50864E-001	-3.25870E-001	1.48605E-008	-3.18191E-008	4.66796E-008	-3.51000E-001	3.93373E-004	6	..........a	-327.68
	13	1.4	-2.98837E-001	-3.48867E-001	-3.23852E-001	1.63263E-008	-3.21778E-008	4.85042E-008	-3.49000E-001	3.91873E-004	6	..........a	-327.68
	14	1.5	-2.96878E-001	-3.46858E-001	-3.21868E-001	1.80849E-008	-3.29439E-008	5.10288E-008	-3.47000E-001	3.74039E-004	6	..........a	-327.68
	15	1.6	-2.94904E-001	-3.44934E-001	-3.19919E-001	2.00825E-008	-3.36610E-008	5.37435E-008	-3.45000E-001	3.82039E-004	6	..........a	-327.68
	16	1.7	-2.92742E-001	-3.42867E-001	-3.17804E-001	2.18620E-008	-3.45865E-008	5.64485E-008	-3.43000E-001	3.81206E-004	6	..........a	-327.68
	17	1.8	-2.90792E-001	-3.40825E-001	-3.15809E-001	2.43700E-008	-3.54803E-008	5.98503E-008	-3.41000E-001	3.92873E-004	6	..........a	-327.68
	18	1.9	-2.88916E-001	-3.38815E-001	-3.13866E-001	2.69513E-008	-3.65871E-008	6.35384E-008	-3.39000E-001	3.78706E-004	6	..........a	-327.68
	19	2	-2.86843E-001	-3.36835E-001	-3.11839E-001	2.92156E-008	-3.81289E-008	6.73446E-008	-3.37000E-001	3.80873E-004	6	..........a	-327.68
	20	2.1	-2.84822E-001	-3.34858E-001	-3.09840E-001	3.19606E-008	-3.95214E-008	7.14821E-008	-3.35000E-001	3.81873E-004	6	..........a	-327.68
	21	2.2	-2.82783E-001	-3.32821E-001	-3.07802E-001	3.47560E-008	-4.12257E-008	7.59817E-008	-3.33000E-001	4.05039E-004	6	..........a	-327.68
	22	2.3	-2.80907E-001	-3.30799E-001	-3.05853E-001	3.78791E-008	-4.31462E-008	8.10253E-008	-3.31000E-001	3.95873E-004	6	..........a	-327.68
	23	2.4	-2.78846E-001	-3.28879E-001	-3.03862E-001	4.11508E-008	-4.52532E-008	8.64040E-008	-3.29000E-001	3.96706E-004	6	..........a	-327.68
	24	2.5	-2.76844E-001	-3.26874E-001	-3.01859E-001	4.43962E-008	-4.77568E-008	9.21531E-008	-3.27000E-001	4.04206E-004	6	..........a	-327.68
	25	2.6	-2.74832E-001	-3.24856E-001	-2.99844E-001	4.79300E-008	-5.01328E-008	9.80628E-008	-3.25000E-001	3.98539E-004	6	..........a	-327.68
	26	2.7	-2.72878E-001	-3.22832E-001	-2.97855E-001	5.13594E-008	-5.29645E-008	1.04324E-007	-3.23000E-001	3.95039E-004	6	..........a	-327.68
	27	2.8	-2.70888E-001	-3.20852E-001	-2.95870E-001	5.49762E-008	-5.60666E-008	1.11043E-007	-3.21000E-001	4.00039E-004	6	..........a	-327.68
	28	2.9	-2.68880E-001	-3.18835E-001	-2.93858E-001	5.82390E-008	-5.89959E-008	1.17235E-007	-3.19000E-001	4.01539E-004	6	..........a	-327.68
	29	3	-2.66771E-001	-3.16844E-001	-2.91807E-001	6.17074E-008	-6.24527E-008	1.24160E-007	-3.17000E-001	3.88206E-004	6	..........a	-327.68
	30	3.1	-2.64903E-001	-3.14842E-001	-2.89873E-001	6.50305E-008	-6.59098E-008	1.30940E-007	-3.15000E-001	3.89373E-004	6	..........a	-327.68
	31	3.2	-2.62908E-001	-3.12892E-001	-2.87900E-001	6.82503E-008	-6.95276E-008	1.37778E-007	-3.13000E-001	3.90206E-004	6	..........a	-327.68
	32	3.3	-2.60762E-001	-3.10853E-001	-2.85807E-001	7.11796E-008	-7.31971E-008	1.44377E-007	-3.11000E-001	4.04539E-004	6	..........a	-327.68
	33	3.4	-2.58791E-001	-3.08859E-001	-2.83825E-001	7.37036E-008	-7.68359E-008	1.50540E-007	-3.09000E-001	4.02206E-004	6	..........a	-327.68
	34	3.5	-2.56840E-001	-3.06820E-001	-2.81830E-001	7.59296E-008	-8.05137E-008	1.56443E-007	-3.07000E-001	3.76373E-004	6	..........a	-327.68
	35	3.6	-2.54871E-001	-3.04903E-001	-2.79887E-001	7.81819E-008	-8.44121E-008	1.62594E-007	-3.05000E-001	3.96539E-004	6	..........a	-327.68
	36	3.7	-2.52854E-001	-3.02897E-001	-2.77876E-001	7.99411E-008	-8.76666E-008	1.67608E-007	-3.03000E-001	3.85873E-004	6	..........a	-327.68
	37	3.8	-2.50813E-001	-3.00887E-001	-2.75850E-001	8.10672E-008	-9.09293E-008	1.71997E-007	-3.01000E-001	4.05039E-004	6	..........a	-327.68
	38	3.9	-2.48875E-001	-2.98851E-001	-2.73863E-001	8.20180E-008	-9.41387E-008	1.76157E-007	-2.99000E-001	4.01373E-004	6	..........a	-327.68
	39	4	-2.46872E-001	-2.96896E-001	-2.71884E-001	8.24544E-008	-9.69521E-008	1.79406E-007	-2.97000E-001	4.13206E-004	6	..........a	-327.68
	40	4.1	-2.44863E-001	-2.94890E-001	-2.69877E-001	8.23857E-008	-9.93554E-008	1.81741E-007	-2.95000E-001	3.92039E-004	6	..........a	-327.68
	41	4.2	-2.42752E-001	-2.92772E-001	-2.67762E-001	8.20587E-008	-1.01370E-007	1.83428E-007	-2.93000E-001	3.87206E-004	6	..........a	-327.68
	42	4.3	-2.40890E-001	-2.90795E-001	-2.65842E-001	8.13029E-008	-1.03239E-007	1.84541E-007	-2.91000E-001	4.03039E-004	6	..........a	-327.68
	43	4.4	-2.38874E-001	-2.88920E-001	-2.63897E-001	8.04178E-008	-1.04223E-007	1.84640E-007	-2.89000E-001	3.96206E-004	6	..........a	-327.68
	44	4.5	-2.36877E-001	-2.86844E-001	-2.61861E-001	7.90873E-008	-1.05140E-007	1.84228E-007	-2.87000E-001	4.05539E-004	6	..........a	-327.68
	45	4.6	-2.34783E-001	-2.84865E-001	-2.59824E-001	7.72147E-008	-1.05144E-007	1.82359E-007	-2.85000E-001	4.00706E-004	6	..........a	-327.68
	46	4.7	-2.32825E-001	-2.82791E-001	-2.57808E-001	7.53298E-008	-1.04796E-007	1.80126E-007	-2.83000E-001	4.04539E-004	6	..........a	-327.68
	47	4.8	-2.30833E-001	-2.80904E-001	-2.55868E-001	7.33666E-008	-1.03945E-007	1.77312E-007	-2.81000E-001	3.96206E-004	6	..........a	-327.68
	48	4.9	-2.28773E-001	-2.78852E-001	-2.53812E-001	7.08213E-008	-1.02717E-007	1.73539E-007	-2.79000E-001	3.89373E-004	6	..........a	-327.68
	49	5	-2.26796E-001	-2.76873E-001	-2.51834E-001	6.86820E-008	-1.00951E-007	1.69633E-007	-2.77000E-001	3.84039E-004	6	..........a	-327.68
	50	5.1	-2.24850E-001	-2.74845E-001	-2.49847E-001	6.58556E-008	-9.86546E-008	1.64510E-007	-2.75000E-001	3.76206E-004	6	..........a	-327.68
	51	5.2	-2.22856E-001	-2.72883E-001	-2.47870E-001	6.34800E-008	-9.59030E-008	1.59383E-007	-2.73000E-001	3.91373E-004	6	..........a	-327.68
	52	5.3	-2.20855E-001	-2.70888E-001	-2.45872E-001	6.08057E-008	-9.28436E-008	1.53649E-007	-2.71000E-001	3.83706E-004	6	..........a	-327.68
	53	5.4	-2.18832E-001	-2.68887E-001	-2.43859E-001	5.81997E-008	-8.95098E-008	1.47709E-007	-2.69000E-001	3.89206E-004	6	..........a	-327.68
	54	5.5	-2.16938E-001	-2.66786E-001	-2.41862E-001	5.55473E-008	-8.59087E-008	1.41456E-007	-2.67000E-001	3.89873E-004	6	..........a	-327.68
	55	5.6	-2.14844E-001	-2.64921E-001	-2.39882E-001	5.30703E-008	-8.20192E-008	1.35090E-007	-2.65000E-001	3.96039E-004	6	..........a	-327.68
	56	5.7	-2.12843E-001	-2.62868E-001	-2.37855E-001	5.04603E-008	-7.79923E-008	1.28453E-007	-2.63000E-001	3.96039E-004	6	..........a	-327.68
	57	5.8	-2.10813E-001	-2.60818E-001	-2.35816E-001	4.80747E-008	-7.42829E-008	1.22358E-007	-2.61000E-001	4.06873E-004	6	..........a	-327.68
	58	5.9	-2.08852E-001	-2.58802E-001	-2.33827E-001	4.57317E-008	-7.00493E-008	1.15781E-007	-2.59000E-001	4.09039E-004	6	..........a	-327.68
	59	6	-2.06856E-001	-2.56857E-001	-2.31856E-001	4.32637E-008	-6.61348E-008	1.09399E-007	-2.57000E-001	4.06706E-004	6	..........a	-327.68
	60	6.1	-2.04831E-001	-2.54859E-001	-2.29845E-001	4.12982E-008	-6.19700E-008	1.03268E-007	-2.55000E-001	4.11039E-004	6	..........a	-327.68
	61	6.2	-2.02799E-001	-2.52868E-001	-2.27833E-001	3.92732E-008	-5.82492E-008	9.75224E-008	-2.53000E-001	4.09373E-004	6	..........a	-327.68
	62	6.3	-2.00872E-001	-2.50822E-001	-2.25847E-001	3.74707E-008	-5.44220E-008	9.18927E-008	-2.51000E-001	4.01039E-004	6	..........a	-327.68
	63	6.4	-1.98875E-001	-2.48876E-001	-2.23875E-001	3.56528E-008	-5.07935E-008	8.64463E-008	-2.49000E-001	4.00539E-004	6	..........a	-327.68
	64	6.5	-1.96858E-001	-2.46881E-001	-2.21869E-001	3.40829E-008	-4.74265E-008	8.15094E-008	-2.47000E-001	4.12206E-004	6	..........a	-327.68
	65	6.6	-1.94845E-001	-2.44873E-001	-2.19859E-001	3.24670E-008	-4.39800E-008	7.64471E-008	-2.45000E-001	4.06539E-004	6	..........a	-327.68
	66	6.7	-1.92878E-001	-2.42768E-001	-2.17823E-001	3.11099E-008	-4.09950E-008	7.21048E-008	-2.43000E-001	3.99206E-004	6	..........a	-327.68
	67	6.8	-1.90865E-001	-2.40866E-001	-2.15866E-001	2.98811E-008	-3.80729E-008	6.79540E-008	-2.41000E-001	3.99206E-004	6	..........a	-327.68
	68	6.9	-1.88875E-001	-2.38911E-001	-2.13893E-001	2.85225E-008	-3.54469E-008	6.39695E-008	-2.39000E-001	3.96206E-004	6	..........a	-327.68
	69	7	-1.86785E-001	-2.36869E-001	-2.11827E-001	2.75241E-008	-3.28876E-008	6.04117E-008	-2.37000E-001	3.98206E-004	6	..........a	-327.68
	70	7.1	-1.84889E-001	-2.34792E-001	-2.09840E-001	2.64469E-008	-3.05143E-008	5.69612E-008	-2.35000E-001	3.97373E-004	6	..........a	-327.68
	71	7.2	-1.82824E-001	-2.32844E-001	-2.07834E-001	2.56922E-008	-2.84640E-008	5.41562E-008	-2.33000E-001	3.92039E-004	6	..........a	-327.68
	72	7.3	-1.80798E-001	-2.30825E-001	-2.05811E-001	2.47034E-008	-2.64871E-008	5.11905E-008	-2.31000E-001	3.81706E-004	6	..........a	-327.68
	73	7.4	-1.78790E-001	-2.28801E-001	-2.03795E-001	2.42450E-008	-2.48279E-008	4.90729E-008	-2.29000E-001	3.81873E-004	6	..........a	-327.68
	74	7.5	-1.76830E-001	-2.26799E-001	-2.01814E-001	2.34876E-008	-2.32687E-008	4.67563E-008	-2.27000E-001	3.95539E-004	6	..........a	-327.68
	75	7.6	-1.74860E-001	-2.24861E-001	-1.99860E-001	2.29778E-008	-2.19112E-008	4.48890E-008	-2.25000E-001	3.88706E-004	6	..........a	-327.68
	76	7.7	-1.72851E-001	-2.22850E-001	-1.97851E-001	2.24084E-008	-2.06190E-008	4.30275E-008	-2.23000E-001	3.97873E-004	6	..........a	-327.68
	77	7.8	-1.70822E-001	-2.20865E-001	-1.95843E-001	2.18277E-008	-1.93722E-008	4.11999E-008	-2.21000E-001	3.90206E-004	6	..........a	-327.68
	78	7.9	-1.68862E-001	-2.18843E-001	-1.93852E-001	2.14543E-008	-1.84598E-008	3.99141E-008	-2.19000E-001	4.13873E-004	6	..........a	-327.68
	79	8	-1.66884E-001	-2.16940E-001	-1.91912E-001	2.10716E-008	-1.74533E-008	3.85249E-008	-2.17000E-001	4.02206E-004	6	..........a	-327.68
	80	8.1	-1.64728E-001	-2.14860E-001	-1.89794E-001	2.09502E-008	-1.66325E-008	3.75828E-008	-2.15000E-001	3.96539E-004	6	..........a	-327.68
	81	8.2	-1.62797E-001	-2.12819E-001	-1.87808E-001	2.05689E-008	-1.58041E-008	3.63730E-008	-2.13000E-001	3.94873E-004	6	..........a	-327.68
	82	8.3	-1.60901E-001	-2.10817E-001	-1.85859E-001	2.01371E-008	-1.50353E-008	3.51725E-008	-2.11000E-001	4.08206E-004	6	..........a	-327.68
	83	8.4	-1.58857E-001	-2.08857E-001	-1.83857E-001	2.02572E-008	-1.44529E-008	3.47101E-008	-2.09000E-001	3.96539E-004	6	..........a	-327.68
	84	8.5	-1.56841E-001	-2.06856E-001	-1.81849E-001	1.97944E-008	-1.41049E-008	3.38993E-008	-2.07000E-001	3.91873E-004	6	..........a	-327.68
	85	8.6	-1.54803E-001	-2.04812E-001	-1.79807E-001	1.99328E-008	-1.32631E-008	3.31959E-008	-2.05000E-001	4.05539E-004	6	..........a	-327.68
	86	8.7	-1.52900E-001	-2.02800E-001	-1.77850E-001	1.96554E-008	-1.31021E-008	3.27575E-008	-2.03000E-001	4.05539E-004	6	..........a	-327.68
	87	8.8	-1.50866E-001	-2.00870E-001	-1.75868E-001	1.93814E-008	-1.23783E-008	3.17597E-008	-2.01000E-001	3.95539E-004	6	..........a	-327.68
	88	8.9	-1.48839E-001	-1.98857E-001	-1.73848E-001	1.94467E-008	-1.21883E-008	3.16350E-008	-1.99000E-001	3.83373E-004	6	..........a	-327.68
	89	9	-1.46821E-001	-1.96843E-001	-1.71832E-001	1.94661E-008	-1.18256E-008	3.12916E-008	-1.97000E-001	3.87373E-004	6	..........a	-327.68
	90	9.1	-1.44844E-001	-1.94825E-001	-1.69834E-001	1.94261E-008	-1.15556E-008	3.09816E-008	-1.95000E-001	4.07539E-004	6	..........a	-327.68
	91	9.2	-1.42887E-001	-1.92862E-001	-1.67875E-001	1.93114E-008	-1.11855E-008	3.04969E-008	-1.93000E-001	4.02539E-004	6	..........a	-327.68
	92	9.3	-1.40863E-001	-1.90880E-001	-1.65871E-001	1.94864E-008	-1.08185E-008	3.03049E-008	-1.91000E-001	4.01873E-004	6	..........a	-327.68
	93	9.4	-1.38769E-001	-1.88850E-001	-1.63810E-001	1.92720E-008	-1.05858E-008	2.98578E-008	-1.89000E-001	4.02539E-004	6	..........a	-327.68
	94	9.5	-1.36876E-001	-1.86789E-001	-1.61833E-001	1.94211E-008	-1.05081E-008	2.99291E-008	-1.87000E-001	3.84873E-004	6	..........a	-327.68
	95	9.6	-1.34895E-001	-1.84882E-001	-1.59888E-001	1.94437E-008	-1.02070E-008	2.96508E-008	-1.85000E-001	4.12039E-004	6	..........a	-327.68
	96	9.7	-1.32766E-001	-1.82829E-001	-1.57798E-001	1.94054E-008	-9.91301E-009	2.93184E-008	-1.83000E-001	3.96373E-004	6	..........a	-327.68
	97	9.8	-1.30795E-001	-1.80784E-001	-1.55789E-001	1.94891E-008	-9.72099E-009	2.92101E-008	-1.81000E-001	4.14373E-004	6	..........a	-327.68
	98	9.9	-1.28836E-001	-1.78789E-001	-1.53812E-001	1.94161E-008	-9.60631E-009	2.90224E-008	-1.79000E-001	4.12539E-004	6	..........a	-327.68
	99	10	-1.26874E-001	-1.76846E-001	-1.51860E-001	1.94494E-008	-9.29426E-009	2.87437E-008	-1.77000E-001	3.97539E-004	6	..........a	-327.68
	100	10.1	-1.24835E-001	-1.74853E-001	-1.49844E-001	1.94777E-008	-9.18058E-009	2.86583E-008	-1.75000E-001	3.98706E-004	6	..........a	-327.68
