EXPLAIN
TAG	SQUARE_WAVE
TITLE	LABEL	Square Wave Voltammetry	Test Identifier
DATE	LABEL	8/31/2020	Date
TIME	LABEL	14:26:16	Time
NOTES	NOTES	1	Notes...
	
PSTAT	PSTAT	REF600-24079	Potentiostat
VINIT	QUANT	-3.50000E-001	Initial E (V)
VFINAL	QUANT	-1.50000E-001	Final E (V)
STEPSIZE	QUANT	2.00000E+000	Step Size (mV)
TIMERRES	QUANT	3.33340E-005	&Timer Resolution
FREQUENCY	QUANT	1.00000E+001	Frequency (Hz)
PULSESIZE	QUANT	2.50000E+001	Pulse Size E (mV)
PULSEON	QUANT	1.00000E-001	Pulse &Time (s)
NOISEREJECT	TOGGLE	F	Noise Rejection
AREA	QUANT	2.00000E-002	Sample Area (cm^2)
IMODE	SELECTOR	1	I/E Range Mode
IRANGE	QUANT	1.00000E-003	Max Current (mA)
EQDELAY	IQUANT	10	Equil. Time (s)
IRCOMP	SELECTOR	0	IRComp
PFCOR	QUANT	5.00000E+001	PF Corr. (ohm)
CYCLES	IQUANT	101	C&ycles (#)
ELECTRODETYPE	SELECTOR	0	Electrode Type
STRIPPING	TOGGLE	F	Used for Stripping
POLARITY	TOGGLE	F	Signal Polarity
LINEFREQ	IQUANT	60	Line Frequency (Hz)
INTPERIOD	QUANT	3.3334E-005	Integration Period (s)
SEQUENCER	TOGGLE	TRUE	Run as Sequence
PSTATMODEL	IQUANT	4	Pstat Model
PSTATSECTION	LABEL	REF600-24079	Pstat Section
PSTATSERIALNO	LABEL	24079	Pstat Serial Number
CTRLMODE	IQUANT	1	Control Mode
ELECTROMETER	IQUANT	0	RE=0 or CS=1
IESTAB	IQUANT	2	I/E Stability
CASPEED	IQUANT	6	Control Amp Speed
CONVENTION	IQUANT	1	Current Convention
ICHRANGE	IQUANT	2	Ich Range
ICHRANGEMODE	TOGGLE	F	Ich Auto Range
ICHOFFSETENABLE	TOGGLE	F	Ich Offset Enable
ICHOFFSET	QUANT	0	Ich Offset (V)
ICHFILTER	IQUANT	2	Ich Filter
VCHRANGE	IQUANT	2	Vch Range
VCHRANGEMODE	TOGGLE	F	Vch Auto Range
VCHOFFSETENABLE	TOGGLE	F	Vch Offset Enable
VCHOFFSET	QUANT	0	Vch Offset (V)
VCHFILTER	IQUANT	2	Vch Filter
ACHRANGE	IQUANT	2	Ach Range
ACHOFFSETENABLE	TOGGLE	F	Ach Offset Enable
ACHOFFSET	QUANT	0	Ach Offset (V)
ACHFILTER	IQUANT	1	Ach Filter
IERANGELOWERLIMIT	IQUANT	1	I/E Range Lower Limit
IERANGEMODE	TOGGLE	F	I/E AutoRange
IERANGE	IQUANT	6	I/E Range
POSFEEDENABLE	TOGGLE	F	Positive Feedback IR Comp
POSFEEDRESISTANCE	QUANT	0	Positive Feedback Resistance (ohm)
ACHSELECT	IQUANT	0	Ach Select
SENSECABLEID	IQUANT	13	Sense Cable ID
PWRCABLEID	IQUANT	13	Power Cable ID
DCCALDATE	LABEL	6/30/2020	DC Calibration Date
ACCALDATE	LABEL	6/30/2020	AC Calibration Date
THERMOSELECT	IQUANT	1	Thermo Select
FRAMEWORKVERSION	LABEL	7.8.2	Framework Version
INSTRUMENTVERSION	LABEL	4.40	Instrument Version
CURVE	TABLE	101
	Pt	T	Vfwd	Vrev	Vstep	Ifwd	Irev	Idif	Sig	Ach	IERange	Over	Temp
	#	s	V	V	V	A	A	A	V	V	#	bits	deg C
	0	0.1	-3.24880E-001	-3.74885E-001	-3.49883E-001	-1.79014E-008	-4.73974E-008	2.94961E-008	-3.75000E-001	3.76539E-004	6	..........a	-327.68
	1	0.2	-3.22861E-001	-3.72887E-001	-3.47874E-001	-7.23734E-009	-4.29102E-008	3.56729E-008	-3.73000E-001	3.53373E-004	6	..........a	-327.68
	2	0.3	-3.20876E-001	-3.70804E-001	-3.45840E-001	-4.47999E-009	-4.14224E-008	3.69424E-008	-3.71000E-001	3.72039E-004	6	..........a	-327.68
	3	0.4	-3.18908E-001	-3.68904E-001	-3.43906E-001	-2.96313E-009	-4.03159E-008	3.73528E-008	-3.69000E-001	3.63706E-004	6	..........a	-327.68
	4	0.5	-3.16780E-001	-3.66911E-001	-3.41846E-001	-1.73497E-009	-3.96598E-008	3.79248E-008	-3.67000E-001	3.61873E-004	6	..........a	-327.68
	5	0.6	-3.14876E-001	-3.64813E-001	-3.39845E-001	-4.62142E-010	-3.90517E-008	3.85896E-008	-3.65000E-001	3.54039E-004	6	..........a	-327.68
	6	0.7	-3.12889E-001	-3.62808E-001	-3.37849E-001	7.22009E-010	-3.87867E-008	3.95087E-008	-3.63000E-001	3.58039E-004	6	..........a	-327.68
	7	0.8	-3.10870E-001	-3.60861E-001	-3.35865E-001	1.44377E-009	-3.83580E-008	3.98017E-008	-3.61000E-001	3.44373E-004	6	..........a	-327.68
	8	0.9	-3.08835E-001	-3.58886E-001	-3.33861E-001	2.72026E-009	-3.80563E-008	4.07765E-008	-3.59000E-001	3.35206E-004	6	..........a	-327.68
	9	1	-3.06849E-001	-3.56781E-001	-3.31815E-001	3.57904E-009	-3.81736E-008	4.17526E-008	-3.57000E-001	3.56706E-004	6	..........a	-327.68
	10	1.1	-3.04878E-001	-3.54835E-001	-3.29857E-001	4.88187E-009	-3.80769E-008	4.29588E-008	-3.55000E-001	3.52206E-004	6	..........a	-327.68
	11	1.2	-3.02899E-001	-3.52885E-001	-3.27892E-001	6.24805E-009	-3.81856E-008	4.44337E-008	-3.53000E-001	3.49873E-004	6	..........a	-327.68
	12	1.3	-3.00875E-001	-3.50878E-001	-3.25876E-001	7.71423E-009	-3.83226E-008	4.60369E-008	-3.51000E-001	3.35706E-004	6	..........a	-327.68
	13	1.4	-2.98849E-001	-3.48866E-001	-3.23858E-001	9.22976E-009	-3.86667E-008	4.78964E-008	-3.49000E-001	3.46873E-004	6	..........a	-327.68
	14	1.5	-2.96881E-001	-3.46858E-001	-3.21869E-001	1.08263E-008	-3.88950E-008	4.97213E-008	-3.47000E-001	3.48039E-004	6	..........a	-327.68
	15	1.6	-2.94888E-001	-3.44917E-001	-3.19902E-001	1.26452E-008	-3.94098E-008	5.20550E-008	-3.45000E-001	3.48873E-004	6	..........a	-327.68
	16	1.7	-2.92716E-001	-3.42882E-001	-3.17799E-001	1.46868E-008	-4.02162E-008	5.49030E-008	-3.43000E-001	3.37373E-004	6	..........a	-327.68
	17	1.8	-2.90813E-001	-3.40827E-001	-3.15820E-001	1.67427E-008	-4.09356E-008	5.76783E-008	-3.41000E-001	3.38539E-004	6	..........a	-327.68
	18	1.9	-2.88912E-001	-3.38849E-001	-3.13881E-001	1.89877E-008	-4.17204E-008	6.07081E-008	-3.39000E-001	3.56373E-004	6	..........a	-327.68
	19	2	-2.86879E-001	-3.36881E-001	-3.11880E-001	2.12626E-008	-4.28429E-008	6.41055E-008	-3.37000E-001	3.49539E-004	6	..........a	-327.68
	20	2.1	-2.84810E-001	-3.34876E-001	-3.09843E-001	2.37833E-008	-4.41110E-008	6.78943E-008	-3.35000E-001	3.52706E-004	6	..........a	-327.68
	21	2.2	-2.82824E-001	-3.32849E-001	-3.07837E-001	2.64850E-008	-4.55285E-008	7.20135E-008	-3.33000E-001	3.60206E-004	6	..........a	-327.68
	22	2.3	-2.80889E-001	-3.30831E-001	-3.05860E-001	2.96750E-008	-4.72844E-008	7.69595E-008	-3.31000E-001	3.61706E-004	6	..........a	-327.68
	23	2.4	-2.78874E-001	-3.28896E-001	-3.03885E-001	3.25907E-008	-4.89533E-008	8.15440E-008	-3.29000E-001	3.62373E-004	6	..........a	-327.68
	24	2.5	-2.76854E-001	-3.26888E-001	-3.01871E-001	3.57581E-008	-5.07832E-008	8.65413E-008	-3.27000E-001	3.64706E-004	6	..........a	-327.68
	25	2.6	-2.74853E-001	-3.24876E-001	-2.99865E-001	3.93032E-008	-5.29905E-008	9.22937E-008	-3.25000E-001	3.62373E-004	6	..........a	-327.68
	26	2.7	-2.72886E-001	-3.22866E-001	-2.97876E-001	4.24893E-008	-5.55925E-008	9.80818E-008	-3.23000E-001	3.72873E-004	6	..........a	-327.68
	27	2.8	-2.70884E-001	-3.20860E-001	-2.95872E-001	4.60501E-008	-5.82978E-008	1.04348E-007	-3.21000E-001	3.68039E-004	6	..........a	-327.68
	28	2.9	-2.68882E-001	-3.18905E-001	-2.93894E-001	4.94395E-008	-6.10995E-008	1.10539E-007	-3.19000E-001	3.65539E-004	6	..........a	-327.68
	29	3	-2.66796E-001	-3.16749E-001	-2.91772E-001	5.28476E-008	-6.40972E-008	1.16945E-007	-3.17000E-001	3.57706E-004	6	..........a	-327.68
	30	3.1	-2.64876E-001	-3.14890E-001	-2.89883E-001	5.61047E-008	-6.73480E-008	1.23453E-007	-3.15000E-001	3.63206E-004	6	..........a	-327.68
	31	3.2	-2.62887E-001	-3.12896E-001	-2.87891E-001	5.95218E-008	-7.06124E-008	1.30134E-007	-3.13000E-001	3.50539E-004	6	..........a	-327.68
	32	3.3	-2.60783E-001	-3.10887E-001	-2.85835E-001	6.23855E-008	-7.39465E-008	1.36332E-007	-3.11000E-001	3.48039E-004	6	..........a	-327.68
	33	3.4	-2.58806E-001	-3.08850E-001	-2.83828E-001	6.50269E-008	-7.74906E-008	1.42517E-007	-3.09000E-001	3.47206E-004	6	..........a	-327.68
	34	3.5	-2.56834E-001	-3.06858E-001	-2.81846E-001	6.76915E-008	-8.09250E-008	1.48617E-007	-3.07000E-001	3.40039E-004	6	..........a	-327.68
	35	3.6	-2.54900E-001	-3.04902E-001	-2.79901E-001	6.97968E-008	-8.45275E-008	1.54324E-007	-3.05000E-001	3.35873E-004	6	..........a	-327.68
	36	3.7	-2.52836E-001	-3.02908E-001	-2.77872E-001	7.17184E-008	-8.80696E-008	1.59788E-007	-3.03000E-001	3.55706E-004	6	..........a	-327.68
	37	3.8	-2.50841E-001	-3.00902E-001	-2.75871E-001	7.31796E-008	-9.14517E-008	1.64631E-007	-3.01000E-001	3.36873E-004	6	..........a	-327.68
	38	3.9	-2.48878E-001	-2.98875E-001	-2.73877E-001	7.41090E-008	-9.43621E-008	1.68471E-007	-2.99000E-001	3.49539E-004	6	..........a	-327.68
	39	4	-2.46883E-001	-2.96909E-001	-2.71896E-001	7.49214E-008	-9.75268E-008	1.72448E-007	-2.97000E-001	3.64539E-004	6	..........a	-327.68
	40	4.1	-2.44878E-001	-2.94893E-001	-2.69885E-001	7.51225E-008	-1.00156E-007	1.75279E-007	-2.95000E-001	3.60539E-004	6	..........a	-327.68
	41	4.2	-2.42784E-001	-2.92779E-001	-2.67782E-001	7.50965E-008	-1.02395E-007	1.77492E-007	-2.93000E-001	3.55206E-004	6	..........a	-327.68
	42	4.3	-2.40861E-001	-2.90823E-001	-2.65842E-001	7.47178E-008	-1.04298E-007	1.79016E-007	-2.91000E-001	3.56706E-004	6	..........a	-327.68
	43	4.4	-2.38892E-001	-2.88913E-001	-2.63902E-001	7.39440E-008	-1.05835E-007	1.79779E-007	-2.89000E-001	3.53539E-004	6	..........a	-327.68
	44	4.5	-2.36834E-001	-2.86887E-001	-2.61860E-001	7.27388E-008	-1.06553E-007	1.79292E-007	-2.87000E-001	3.49039E-004	6	..........a	-327.68
	45	4.6	-2.34796E-001	-2.84839E-001	-2.59817E-001	7.12696E-008	-1.07151E-007	1.78421E-007	-2.85000E-001	3.57039E-004	6	..........a	-327.68
	46	4.7	-2.32834E-001	-2.82828E-001	-2.57831E-001	6.94751E-008	-1.07206E-007	1.76681E-007	-2.83000E-001	3.54206E-004	6	..........a	-327.68
	47	4.8	-2.30859E-001	-2.80924E-001	-2.55891E-001	6.78592E-008	-1.06635E-007	1.74495E-007	-2.81000E-001	3.57873E-004	6	..........a	-327.68
	48	4.9	-2.28806E-001	-2.78887E-001	-2.53846E-001	6.53866E-008	-1.05764E-007	1.71150E-007	-2.79000E-001	3.55373E-004	6	..........a	-327.68
	49	5	-2.26810E-001	-2.76881E-001	-2.51846E-001	6.32710E-008	-1.04561E-007	1.67832E-007	-2.77000E-001	3.53373E-004	6	..........a	-327.68
	50	5.1	-2.24861E-001	-2.74859E-001	-2.49860E-001	6.08913E-008	-1.02443E-007	1.63334E-007	-2.75000E-001	3.50039E-004	6	..........a	-327.68
	51	5.2	-2.22856E-001	-2.72895E-001	-2.47875E-001	5.84607E-008	-1.00307E-007	1.58768E-007	-2.73000E-001	3.48206E-004	6	..........a	-327.68
	52	5.3	-2.20853E-001	-2.70883E-001	-2.45868E-001	5.62481E-008	-9.74385E-008	1.53687E-007	-2.71000E-001	3.48539E-004	6	..........a	-327.68
	53	5.4	-2.18858E-001	-2.68893E-001	-2.43876E-001	5.35127E-008	-9.45394E-008	1.48052E-007	-2.69000E-001	3.61539E-004	6	..........a	-327.68
	54	5.5	-2.16864E-001	-2.66805E-001	-2.41834E-001	5.10114E-008	-9.09700E-008	1.41981E-007	-2.67000E-001	3.46373E-004	6	..........a	-327.68
	55	5.6	-2.14877E-001	-2.64898E-001	-2.39887E-001	4.86378E-008	-8.73519E-008	1.35990E-007	-2.65000E-001	3.51873E-004	6	..........a	-327.68
	56	5.7	-2.12853E-001	-2.62893E-001	-2.37873E-001	4.59318E-008	-8.35710E-008	1.29503E-007	-2.63000E-001	3.59706E-004	6	..........a	-327.68
	57	5.8	-2.10845E-001	-2.60860E-001	-2.35853E-001	4.38615E-008	-7.97809E-008	1.23642E-007	-2.61000E-001	3.62039E-004	6	..........a	-327.68
	58	5.9	-2.08859E-001	-2.58835E-001	-2.33847E-001	4.14785E-008	-7.56474E-008	1.17126E-007	-2.59000E-001	3.78539E-004	6	..........a	-327.68
	59	6	-2.06874E-001	-2.56865E-001	-2.31869E-001	3.91889E-008	-7.15379E-008	1.10727E-007	-2.57000E-001	3.86039E-004	6	..........a	-327.68
	60	6.1	-2.04817E-001	-2.54898E-001	-2.29857E-001	3.73037E-008	-6.75517E-008	1.04855E-007	-2.55000E-001	3.75539E-004	6	..........a	-327.68
	61	6.2	-2.02825E-001	-2.52827E-001	-2.27826E-001	3.53394E-008	-6.36782E-008	9.90176E-008	-2.53000E-001	3.60039E-004	6	..........a	-327.68
	62	6.3	-2.00881E-001	-2.50853E-001	-2.25867E-001	3.35172E-008	-5.99220E-008	9.34392E-008	-2.51000E-001	3.77539E-004	6	..........a	-327.68
	63	6.4	-1.98889E-001	-2.48877E-001	-2.23883E-001	3.19453E-008	-5.61279E-008	8.80732E-008	-2.49000E-001	3.56039E-004	6	..........a	-327.68
	64	6.5	-1.96878E-001	-2.46862E-001	-2.21870E-001	3.01311E-008	-5.24098E-008	8.25408E-008	-2.47000E-001	3.64873E-004	6	..........a	-327.68
	65	6.6	-1.94853E-001	-2.44873E-001	-2.19863E-001	2.89269E-008	-4.92227E-008	7.81496E-008	-2.45000E-001	3.55206E-004	6	..........a	-327.68
	66	6.7	-1.92880E-001	-2.42806E-001	-2.17843E-001	2.74254E-008	-4.61973E-008	7.36227E-008	-2.43000E-001	3.40206E-004	6	..........a	-327.68
	67	6.8	-1.90882E-001	-2.40899E-001	-2.15890E-001	2.61136E-008	-4.30909E-008	6.92045E-008	-2.41000E-001	3.58706E-004	6	..........a	-327.68
	68	6.9	-1.88763E-001	-2.38910E-001	-2.13836E-001	2.48571E-008	-4.04149E-008	6.52720E-008	-2.39000E-001	3.59039E-004	6	..........a	-327.68
	69	7	-1.86825E-001	-2.36797E-001	-2.11811E-001	2.38776E-008	-3.75722E-008	6.14498E-008	-2.37000E-001	3.43706E-004	6	..........a	-327.68
	70	7.1	-1.84880E-001	-2.34828E-001	-2.09854E-001	2.30052E-008	-3.53392E-008	5.83444E-008	-2.35000E-001	3.57206E-004	6	..........a	-327.68
	71	7.2	-1.82867E-001	-2.32848E-001	-2.07857E-001	2.19967E-008	-3.32526E-008	5.52494E-008	-2.33000E-001	3.41373E-004	6	..........a	-327.68
	72	7.3	-1.80808E-001	-2.30875E-001	-2.05841E-001	2.12506E-008	-3.12011E-008	5.24517E-008	-2.31000E-001	3.44206E-004	6	..........a	-327.68
	73	7.4	-1.78824E-001	-2.28844E-001	-2.03834E-001	2.03465E-008	-2.90861E-008	4.94326E-008	-2.29000E-001	3.39706E-004	6	..........a	-327.68
	74	7.5	-1.76840E-001	-2.26840E-001	-2.01840E-001	2.00158E-008	-2.75106E-008	4.75264E-008	-2.27000E-001	3.36206E-004	6	..........a	-327.68
	75	7.6	-1.74873E-001	-2.24871E-001	-1.99872E-001	1.93684E-008	-2.62244E-008	4.55928E-008	-2.25000E-001	3.49039E-004	6	..........a	-327.68
	76	7.7	-1.72848E-001	-2.22871E-001	-1.97860E-001	1.89153E-008	-2.47639E-008	4.36792E-008	-2.23000E-001	3.48873E-004	6	..........a	-327.68
	77	7.8	-1.70834E-001	-2.20873E-001	-1.95853E-001	1.83703E-008	-2.36404E-008	4.20107E-008	-2.21000E-001	3.33373E-004	6	..........a	-327.68
	78	7.9	-1.68867E-001	-2.18862E-001	-1.93865E-001	1.79572E-008	-2.25530E-008	4.05102E-008	-2.19000E-001	3.42873E-004	6	..........a	-327.68
	79	8	-1.66877E-001	-2.16886E-001	-1.91881E-001	1.76872E-008	-2.14878E-008	3.91750E-008	-2.17000E-001	3.55873E-004	6	..........a	-327.68
	80	8.1	-1.64739E-001	-2.14877E-001	-1.89808E-001	1.76062E-008	-2.06140E-008	3.82202E-008	-2.15000E-001	3.36539E-004	6	..........a	-327.68
	81	8.2	-1.62813E-001	-2.12862E-001	-1.87837E-001	1.72738E-008	-1.98599E-008	3.71337E-008	-2.13000E-001	3.35539E-004	6	..........a	-327.68
	82	8.3	-1.60890E-001	-2.10846E-001	-1.85868E-001	1.69537E-008	-1.89535E-008	3.59072E-008	-2.11000E-001	3.45039E-004	6	..........a	-327.68
	83	8.4	-1.58856E-001	-2.08866E-001	-1.83861E-001	1.67320E-008	-1.84328E-008	3.51648E-008	-2.09000E-001	3.54039E-004	6	..........a	-327.68
	84	8.5	-1.56800E-001	-2.06873E-001	-1.81837E-001	1.65464E-008	-1.78707E-008	3.44170E-008	-2.07000E-001	3.51873E-004	6	..........a	-327.68
	85	8.6	-1.54789E-001	-2.04813E-001	-1.79801E-001	1.64393E-008	-1.74006E-008	3.38400E-008	-2.05000E-001	3.48873E-004	6	..........a	-327.68
	86	8.7	-1.52857E-001	-2.02829E-001	-1.77843E-001	1.64813E-008	-1.67762E-008	3.32576E-008	-2.03000E-001	3.48706E-004	6	..........a	-327.68
	87	8.8	-1.50873E-001	-2.00867E-001	-1.75870E-001	1.62343E-008	-1.62632E-008	3.24975E-008	-2.01000E-001	3.54373E-004	6	..........a	-327.68
	88	8.9	-1.48830E-001	-1.98884E-001	-1.73857E-001	1.62897E-008	-1.58784E-008	3.21681E-008	-1.99000E-001	3.52706E-004	6	..........a	-327.68
	89	9	-1.46821E-001	-1.96854E-001	-1.71837E-001	1.61513E-008	-1.54454E-008	3.15967E-008	-1.97000E-001	3.46206E-004	6	..........a	-327.68
	90	9.1	-1.44843E-001	-1.94851E-001	-1.69847E-001	1.61640E-008	-1.51053E-008	3.12693E-008	-1.95000E-001	3.46706E-004	6	..........a	-327.68
	91	9.2	-1.42877E-001	-1.92872E-001	-1.67874E-001	1.60970E-008	-1.47640E-008	3.08609E-008	-1.93000E-001	3.45039E-004	6	..........a	-327.68
	92	9.3	-1.40854E-001	-1.90885E-001	-1.65870E-001	1.62263E-008	-1.44586E-008	3.06849E-008	-1.91000E-001	3.50873E-004	6	..........a	-327.68
	93	9.4	-1.38776E-001	-1.88701E-001	-1.63738E-001	1.62507E-008	-1.42326E-008	3.04832E-008	-1.89000E-001	3.48706E-004	6	..........a	-327.68
	94	9.5	-1.36841E-001	-1.86822E-001	-1.61832E-001	1.61416E-008	-1.37758E-008	2.99175E-008	-1.87000E-001	3.47039E-004	6	..........a	-327.68
	95	9.6	-1.34874E-001	-1.84873E-001	-1.59874E-001	1.62280E-008	-1.37442E-008	2.99721E-008	-1.85000E-001	3.52039E-004	6	..........a	-327.68
	96	9.7	-1.32769E-001	-1.82852E-001	-1.57811E-001	1.62700E-008	-1.35701E-008	2.98401E-008	-1.83000E-001	3.38539E-004	6	..........a	-327.68
	97	9.8	-1.30796E-001	-1.80770E-001	-1.55783E-001	1.64650E-008	-1.33508E-008	2.98158E-008	-1.81000E-001	3.39373E-004	6	..........a	-327.68
	98	9.9	-1.28825E-001	-1.78812E-001	-1.53818E-001	1.64133E-008	-1.31024E-008	2.95158E-008	-1.79000E-001	3.53706E-004	6	..........a	-327.68
	99	10	-1.26885E-001	-1.76849E-001	-1.51867E-001	1.64643E-008	-1.28814E-008	2.93457E-008	-1.77000E-001	3.45539E-004	6	..........a	-327.68
	100	10.1	-1.24818E-001	-1.74866E-001	-1.49842E-001	1.62943E-008	-1.26044E-008	2.88987E-008	-1.75000E-001	3.57373E-004	6	..........a	-327.68
