EXPLAIN
TAG	SQUARE_WAVE
TITLE	LABEL	Square Wave Voltammetry	Test Identifier
DATE	LABEL	8/31/2020	Date
TIME	LABEL	14:29:18	Time
NOTES	NOTES	1	Notes...
	
PSTAT	PSTAT	REF600-24079	Potentiostat
VINIT	QUANT	-3.50000E-001	Initial E (V)
VFINAL	QUANT	-1.50000E-001	Final E (V)
STEPSIZE	QUANT	2.00000E+000	Step Size (mV)
TIMERRES	QUANT	3.33340E-005	&Timer Resolution
FREQUENCY	QUANT	5.00000E+000	Frequency (Hz)
PULSESIZE	QUANT	2.50000E+001	Pulse Size E (mV)
PULSEON	QUANT	2.00000E-001	Pulse &Time (s)
NOISEREJECT	TOGGLE	F	Noise Rejection
AREA	QUANT	2.00000E-002	Sample Area (cm^2)
IMODE	SELECTOR	1	I/E Range Mode
IRANGE	QUANT	1.00000E-003	Max Current (mA)
EQDELAY	IQUANT	10	Equil. Time (s)
IRCOMP	SELECTOR	0	IRComp
PFCOR	QUANT	5.00000E+001	PF Corr. (ohm)
CYCLES	IQUANT	101	C&ycles (#)
ELECTRODETYPE	SELECTOR	0	Electrode Type
STRIPPING	TOGGLE	F	Used for Stripping
POLARITY	TOGGLE	F	Signal Polarity
LINEFREQ	IQUANT	60	Line Frequency (Hz)
INTPERIOD	QUANT	3.3334E-005	Integration Period (s)
SEQUENCER	TOGGLE	TRUE	Run as Sequence
PSTATMODEL	IQUANT	4	Pstat Model
PSTATSECTION	LABEL	REF600-24079	Pstat Section
PSTATSERIALNO	LABEL	24079	Pstat Serial Number
CTRLMODE	IQUANT	1	Control Mode
ELECTROMETER	IQUANT	0	RE=0 or CS=1
IESTAB	IQUANT	2	I/E Stability
CASPEED	IQUANT	6	Control Amp Speed
CONVENTION	IQUANT	1	Current Convention
ICHRANGE	IQUANT	2	Ich Range
ICHRANGEMODE	TOGGLE	F	Ich Auto Range
ICHOFFSETENABLE	TOGGLE	F	Ich Offset Enable
ICHOFFSET	QUANT	0	Ich Offset (V)
ICHFILTER	IQUANT	2	Ich Filter
VCHRANGE	IQUANT	2	Vch Range
VCHRANGEMODE	TOGGLE	F	Vch Auto Range
VCHOFFSETENABLE	TOGGLE	F	Vch Offset Enable
VCHOFFSET	QUANT	0	Vch Offset (V)
VCHFILTER	IQUANT	2	Vch Filter
ACHRANGE	IQUANT	2	Ach Range
ACHOFFSETENABLE	TOGGLE	F	Ach Offset Enable
ACHOFFSET	QUANT	0	Ach Offset (V)
ACHFILTER	IQUANT	1	Ach Filter
IERANGELOWERLIMIT	IQUANT	1	I/E Range Lower Limit
IERANGEMODE	TOGGLE	F	I/E AutoRange
IERANGE	IQUANT	6	I/E Range
POSFEEDENABLE	TOGGLE	F	Positive Feedback IR Comp
POSFEEDRESISTANCE	QUANT	0	Positive Feedback Resistance (ohm)
ACHSELECT	IQUANT	0	Ach Select
SENSECABLEID	IQUANT	13	Sense Cable ID
PWRCABLEID	IQUANT	13	Power Cable ID
DCCALDATE	LABEL	6/30/2020	DC Calibration Date
ACCALDATE	LABEL	6/30/2020	AC Calibration Date
THERMOSELECT	IQUANT	1	Thermo Select
FRAMEWORKVERSION	LABEL	7.8.2	Framework Version
INSTRUMENTVERSION	LABEL	4.40	Instrument Version
CURVE	TABLE	101
	Pt	T	Vfwd	Vrev	Vstep	Ifwd	Irev	Idif	Sig	Ach	IERange	Over	Temp
	#	s	V	V	V	A	A	A	V	V	#	bits	deg C
	0	0.2	-3.24856E-001	-3.74896E-001	-3.49876E-001	-1.18398E-008	-3.18248E-008	1.99850E-008	-3.75000E-001	3.47039E-004	6	..........a	-327.68
	1	0.4	-3.22861E-001	-3.72885E-001	-3.47873E-001	-5.19058E-009	-2.91988E-008	2.40082E-008	-3.73000E-001	3.43706E-004	6	..........a	-327.68
	2	0.6	-3.20881E-001	-3.70811E-001	-3.45846E-001	-3.65572E-009	-2.81430E-008	2.44873E-008	-3.71000E-001	3.31706E-004	6	..........a	-327.68
	3	0.8	-3.18922E-001	-3.68910E-001	-3.43916E-001	-2.59358E-009	-2.73747E-008	2.47812E-008	-3.69000E-001	3.43289E-004	6	..........a	-327.68
	4	1	-3.16797E-001	-3.66923E-001	-3.41860E-001	-1.84648E-009	-2.67693E-008	2.49228E-008	-3.67000E-001	3.42206E-004	6	..........a	-327.68
	5	1.2	-3.14877E-001	-3.64870E-001	-3.39874E-001	-1.11139E-009	-2.63546E-008	2.52432E-008	-3.65000E-001	3.37873E-004	6	..........a	-327.68
	6	1.4	-3.12888E-001	-3.62831E-001	-3.37859E-001	-4.10469E-010	-2.59757E-008	2.55653E-008	-3.63000E-001	3.33289E-004	6	..........a	-327.68
	7	1.6	-3.10882E-001	-3.60879E-001	-3.35880E-001	3.61463E-010	-2.55635E-008	2.59250E-008	-3.61000E-001	3.42206E-004	6	..........a	-327.68
	8	1.8	-3.08827E-001	-3.58894E-001	-3.33860E-001	9.58705E-010	-2.53225E-008	2.62812E-008	-3.59000E-001	3.25706E-004	6	..........a	-327.68
	9	2	-3.06838E-001	-3.56856E-001	-3.31847E-001	1.56128E-009	-2.51848E-008	2.67461E-008	-3.57000E-001	3.24706E-004	6	..........a	-327.68
	10	2.2	-3.04891E-001	-3.54851E-001	-3.29871E-001	2.24020E-009	-2.48312E-008	2.70714E-008	-3.55000E-001	3.23373E-004	6	..........a	-327.68
	11	2.4	-3.02907E-001	-3.52892E-001	-3.27900E-001	3.13165E-009	-2.47369E-008	2.78685E-008	-3.53000E-001	3.28539E-004	6	..........a	-327.68
	12	2.6	-3.00890E-001	-3.50885E-001	-3.25888E-001	3.86591E-009	-2.45377E-008	2.84036E-008	-3.51000E-001	3.35539E-004	6	..........a	-327.68
	13	2.8	-2.98862E-001	-3.48887E-001	-3.23875E-001	4.76136E-009	-2.45124E-008	2.92737E-008	-3.49000E-001	3.34206E-004	6	..........a	-327.68
	14	3	-2.96893E-001	-3.46872E-001	-3.21882E-001	5.66964E-009	-2.45975E-008	3.02672E-008	-3.47000E-001	3.25623E-004	6	..........a	-327.68
	15	3.2	-2.94897E-001	-3.44930E-001	-3.19914E-001	6.67743E-009	-2.46501E-008	3.13275E-008	-3.45000E-001	3.33789E-004	6	..........a	-327.68
	16	3.4	-2.92739E-001	-3.42914E-001	-3.17826E-001	7.77441E-009	-2.48891E-008	3.26635E-008	-3.43000E-001	3.33456E-004	6	..........a	-327.68
	17	3.6	-2.90785E-001	-3.40862E-001	-3.15824E-001	8.95306E-009	-2.51868E-008	3.41398E-008	-3.41000E-001	3.29039E-004	6	..........a	-327.68
	18	3.8	-2.88901E-001	-3.38845E-001	-3.13873E-001	1.01467E-008	-2.55028E-008	3.56495E-008	-3.39000E-001	3.26873E-004	6	..........a	-327.68
	19	4	-2.86881E-001	-3.36873E-001	-3.11877E-001	1.15494E-008	-2.59192E-008	3.74686E-008	-3.37000E-001	3.31706E-004	6	..........a	-327.68
	20	4.2	-2.84747E-001	-3.34886E-001	-3.09817E-001	1.29691E-008	-2.65046E-008	3.94737E-008	-3.35000E-001	3.31123E-004	6	..........a	-327.68
	21	4.4	-2.82781E-001	-3.32844E-001	-3.07813E-001	1.45979E-008	-2.69608E-008	4.15588E-008	-3.33000E-001	3.22623E-004	6	..........a	-327.68
	22	4.6	-2.80871E-001	-3.30839E-001	-3.05855E-001	1.61486E-008	-2.76871E-008	4.38357E-008	-3.31000E-001	3.27539E-004	6	..........a	-327.68
	23	4.8	-2.78894E-001	-3.28880E-001	-3.03887E-001	1.79832E-008	-2.85250E-008	4.65083E-008	-3.29000E-001	3.20873E-004	6	..........a	-327.68
	24	5	-2.76875E-001	-3.26893E-001	-3.01884E-001	1.96371E-008	-2.94460E-008	4.90831E-008	-3.27000E-001	3.26789E-004	6	..........a	-327.68
	25	5.2	-2.74851E-001	-3.24878E-001	-2.99865E-001	2.15038E-008	-3.05980E-008	5.21018E-008	-3.25000E-001	3.16706E-004	6	..........a	-327.68
	26	5.4	-2.72892E-001	-3.22864E-001	-2.97878E-001	2.33809E-008	-3.16926E-008	5.50735E-008	-3.23000E-001	3.27623E-004	6	..........a	-327.68
	27	5.6	-2.70894E-001	-3.20882E-001	-2.95888E-001	2.52083E-008	-3.30391E-008	5.82474E-008	-3.21000E-001	3.29373E-004	6	..........a	-327.68
	28	5.8	-2.68884E-001	-3.18905E-001	-2.93894E-001	2.69650E-008	-3.44816E-008	6.14467E-008	-3.19000E-001	3.26123E-004	6	..........a	-327.68
	29	6	-2.66815E-001	-3.16750E-001	-2.91783E-001	2.89626E-008	-3.62102E-008	6.51728E-008	-3.17000E-001	3.27039E-004	6	..........a	-327.68
	30	6.2	-2.64912E-001	-3.14878E-001	-2.89895E-001	3.07263E-008	-3.77452E-008	6.84715E-008	-3.15000E-001	3.29039E-004	6	..........a	-327.68
	31	6.4	-2.62894E-001	-3.12896E-001	-2.87895E-001	3.25202E-008	-3.93923E-008	7.19125E-008	-3.13000E-001	3.36123E-004	6	..........a	-327.68
	32	6.6	-2.60824E-001	-3.10883E-001	-2.85854E-001	3.41021E-008	-4.13025E-008	7.54046E-008	-3.11000E-001	3.34206E-004	6	..........a	-327.68
	33	6.8	-2.58834E-001	-3.08841E-001	-2.83837E-001	3.56560E-008	-4.32334E-008	7.88894E-008	-3.09000E-001	3.33039E-004	6	..........a	-327.68
	34	7	-2.56886E-001	-3.06866E-001	-2.81876E-001	3.69946E-008	-4.52350E-008	8.22296E-008	-3.07000E-001	3.43123E-004	6	..........a	-327.68
	35	7.2	-2.54909E-001	-3.04911E-001	-2.79910E-001	3.81668E-008	-4.72164E-008	8.53832E-008	-3.05000E-001	3.41289E-004	6	..........a	-327.68
	36	7.4	-2.52833E-001	-3.02905E-001	-2.77869E-001	3.91434E-008	-4.92227E-008	8.83661E-008	-3.03000E-001	3.52289E-004	6	..........a	-327.68
	37	7.6	-2.50858E-001	-3.00897E-001	-2.75878E-001	3.98195E-008	-5.10749E-008	9.08944E-008	-3.01000E-001	3.41956E-004	6	..........a	-327.68
	38	7.8	-2.48890E-001	-2.98873E-001	-2.73882E-001	4.05171E-008	-5.30075E-008	9.35246E-008	-2.99000E-001	3.52873E-004	6	..........a	-327.68
	39	8	-2.46888E-001	-2.96885E-001	-2.71887E-001	4.07488E-008	-5.46879E-008	9.54366E-008	-2.97000E-001	3.46123E-004	6	..........a	-327.68
	40	8.2	-2.44889E-001	-2.94868E-001	-2.69879E-001	4.09800E-008	-5.63434E-008	9.73234E-008	-2.95000E-001	3.39623E-004	6	..........a	-327.68
	41	8.4	-2.42805E-001	-2.92797E-001	-2.67801E-001	4.09750E-008	-5.77036E-008	9.86786E-008	-2.93000E-001	3.44289E-004	6	..........a	-327.68
	42	8.6	-2.40914E-001	-2.90840E-001	-2.65877E-001	4.07438E-008	-5.89973E-008	9.97410E-008	-2.91000E-001	3.49039E-004	6	..........a	-327.68
	43	8.8	-2.38908E-001	-2.88917E-001	-2.63912E-001	4.03696E-008	-6.00424E-008	1.00412E-007	-2.89000E-001	3.39206E-004	6	..........a	-327.68
	44	9	-2.36813E-001	-2.86891E-001	-2.61852E-001	3.98043E-008	-6.08182E-008	1.00622E-007	-2.87000E-001	3.51539E-004	6	..........a	-327.68
	45	9.2	-2.34837E-001	-2.84839E-001	-2.59838E-001	3.90619E-008	-6.15056E-008	1.00567E-007	-2.85000E-001	3.51873E-004	6	..........a	-327.68
	46	9.4	-2.32873E-001	-2.82846E-001	-2.57859E-001	3.83298E-008	-6.17103E-008	1.00040E-007	-2.83000E-001	3.44706E-004	6	..........a	-327.68
	47	9.6	-2.30881E-001	-2.80919E-001	-2.55900E-001	3.74877E-008	-6.16208E-008	9.91084E-008	-2.81000E-001	3.46289E-004	6	..........a	-327.68
	48	9.8	-2.28836E-001	-2.78891E-001	-2.53863E-001	3.64334E-008	-6.14106E-008	9.78440E-008	-2.79000E-001	3.52789E-004	6	..........a	-327.68
	49	10	-2.26843E-001	-2.76866E-001	-2.51854E-001	3.54036E-008	-6.06451E-008	9.60487E-008	-2.77000E-001	3.49373E-004	6	..........a	-327.68
	50	10.2	-2.24882E-001	-2.74855E-001	-2.49868E-001	3.43204E-008	-5.97477E-008	9.40681E-008	-2.75000E-001	3.52456E-004	6	..........a	-327.68
	51	10.4	-2.22878E-001	-2.72873E-001	-2.47875E-001	3.31228E-008	-5.85070E-008	9.16298E-008	-2.73000E-001	3.47123E-004	6	..........a	-327.68
	52	10.6	-2.20868E-001	-2.70854E-001	-2.45861E-001	3.19697E-008	-5.70617E-008	8.90313E-008	-2.71000E-001	3.36706E-004	6	..........a	-327.68
	53	10.8	-2.18870E-001	-2.68874E-001	-2.43872E-001	3.08515E-008	-5.52800E-008	8.61315E-008	-2.69000E-001	3.47456E-004	6	..........a	-327.68
	54	11	-2.16902E-001	-2.66820E-001	-2.41861E-001	2.96992E-008	-5.34741E-008	8.31732E-008	-2.67000E-001	3.50206E-004	6	..........a	-327.68
	55	11.2	-2.14891E-001	-2.64907E-001	-2.39899E-001	2.85941E-008	-5.14123E-008	8.00063E-008	-2.65000E-001	3.47706E-004	6	..........a	-327.68
	56	11.4	-2.12853E-001	-2.62886E-001	-2.37870E-001	2.73039E-008	-4.92237E-008	7.65276E-008	-2.63000E-001	3.38539E-004	6	..........a	-327.68
	57	11.6	-2.10861E-001	-2.60859E-001	-2.35860E-001	2.62276E-008	-4.68197E-008	7.30473E-008	-2.61000E-001	3.35123E-004	6	..........a	-327.68
	58	11.8	-2.08878E-001	-2.58836E-001	-2.33857E-001	2.50903E-008	-4.45789E-008	6.96692E-008	-2.59000E-001	3.33873E-004	6	..........a	-327.68
	59	12	-2.06881E-001	-2.56878E-001	-2.31880E-001	2.40826E-008	-4.20041E-008	6.60867E-008	-2.57000E-001	3.32873E-004	6	..........a	-327.68
	60	12.2	-2.04842E-001	-2.54898E-001	-2.29870E-001	2.30717E-008	-3.95201E-008	6.25918E-008	-2.55000E-001	3.36456E-004	6	..........a	-327.68
	61	12.4	-2.02829E-001	-2.52839E-001	-2.27834E-001	2.21499E-008	-3.71726E-008	5.93225E-008	-2.53000E-001	3.38123E-004	6	..........a	-327.68
	62	12.6	-2.00874E-001	-2.50850E-001	-2.25862E-001	2.13065E-008	-3.47943E-008	5.61008E-008	-2.51000E-001	3.29873E-004	6	..........a	-327.68
	63	12.8	-1.98899E-001	-2.48883E-001	-2.23891E-001	2.04367E-008	-3.24862E-008	5.29229E-008	-2.49000E-001	3.32539E-004	6	..........a	-327.68
	64	13	-1.96875E-001	-2.46881E-001	-2.21878E-001	1.95942E-008	-3.04445E-008	5.00387E-008	-2.47000E-001	3.30373E-004	6	..........a	-327.68
	65	13.2	-1.94861E-001	-2.44888E-001	-2.19875E-001	1.89010E-008	-2.83464E-008	4.72473E-008	-2.45000E-001	3.28789E-004	6	..........a	-327.68
	66	13.4	-1.92885E-001	-2.42807E-001	-2.17846E-001	1.82356E-008	-2.64194E-008	4.46550E-008	-2.43000E-001	3.24956E-004	6	..........a	-327.68
	67	13.6	-1.90901E-001	-2.40896E-001	-2.15898E-001	1.75313E-008	-2.46969E-008	4.22282E-008	-2.41000E-001	3.30373E-004	6	..........a	-327.68
	68	13.8	-1.88787E-001	-2.38902E-001	-2.13845E-001	1.69537E-008	-2.30804E-008	4.00341E-008	-2.39000E-001	3.34373E-004	6	..........a	-327.68
	69	14	-1.86833E-001	-2.36862E-001	-2.11847E-001	1.65937E-008	-2.15218E-008	3.81155E-008	-2.37000E-001	3.31539E-004	6	..........a	-327.68
	70	14.2	-1.84862E-001	-2.34828E-001	-2.09845E-001	1.59456E-008	-2.00586E-008	3.60042E-008	-2.35000E-001	3.28706E-004	6	..........a	-327.68
	71	14.4	-1.82855E-001	-2.32873E-001	-2.07864E-001	1.55422E-008	-1.88445E-008	3.43867E-008	-2.33000E-001	3.30873E-004	6	..........a	-327.68
	72	14.6	-1.80788E-001	-2.30883E-001	-2.05836E-001	1.52107E-008	-1.75597E-008	3.27703E-008	-2.31000E-001	3.25789E-004	6	..........a	-327.68
	73	14.8	-1.78783E-001	-2.28830E-001	-2.03806E-001	1.47913E-008	-1.65517E-008	3.13430E-008	-2.29000E-001	3.25539E-004	6	..........a	-327.68
	74	15	-1.76825E-001	-2.26839E-001	-2.01832E-001	1.45583E-008	-1.56229E-008	3.01812E-008	-2.27000E-001	3.28706E-004	6	..........a	-327.68
	75	15.2	-1.74854E-001	-2.24882E-001	-1.99868E-001	1.42029E-008	-1.45373E-008	2.87402E-008	-2.25000E-001	3.32539E-004	6	..........a	-327.68
	76	15.4	-1.72833E-001	-2.22874E-001	-1.97854E-001	1.40655E-008	-1.38405E-008	2.79061E-008	-2.23000E-001	3.33539E-004	6	..........a	-327.68
	77	15.6	-1.70824E-001	-2.20857E-001	-1.95840E-001	1.38592E-008	-1.30999E-008	2.69591E-008	-2.21000E-001	3.27623E-004	6	..........a	-327.68
	78	15.8	-1.68867E-001	-2.18861E-001	-1.93864E-001	1.37068E-008	-1.24807E-008	2.61875E-008	-2.19000E-001	3.32123E-004	6	..........a	-327.68
	79	16	-1.66882E-001	-2.16923E-001	-1.91903E-001	1.35466E-008	-1.18573E-008	2.54039E-008	-2.17000E-001	3.37539E-004	6	..........a	-327.68
	80	16.2	-1.64632E-001	-2.14892E-001	-1.89762E-001	1.34096E-008	-1.13795E-008	2.47892E-008	-2.15000E-001	3.30539E-004	6	..........a	-327.68
	81	16.4	-1.62790E-001	-2.12810E-001	-1.87800E-001	1.32673E-008	-1.08976E-008	2.41649E-008	-2.13000E-001	3.34456E-004	6	..........a	-327.68
	82	16.6	-1.60885E-001	-2.10855E-001	-1.85870E-001	1.31391E-008	-1.05093E-008	2.36483E-008	-2.11000E-001	3.40873E-004	6	..........a	-327.68
	83	16.8	-1.58879E-001	-2.08878E-001	-1.83878E-001	1.30652E-008	-1.01175E-008	2.31828E-008	-2.09000E-001	3.44956E-004	6	..........a	-327.68
	84	17	-1.56737E-001	-2.06876E-001	-1.81807E-001	1.31981E-008	-9.70448E-009	2.29026E-008	-2.07000E-001	3.41456E-004	6	..........a	-327.68
	85	17.2	-1.54772E-001	-2.04836E-001	-1.79804E-001	1.30861E-008	-9.37128E-009	2.24574E-008	-2.05000E-001	3.28039E-004	6	..........a	-327.68
	86	17.4	-1.52860E-001	-2.02843E-001	-1.77851E-001	1.30352E-008	-9.11208E-009	2.21473E-008	-2.03000E-001	3.40623E-004	6	..........a	-327.68
	87	17.6	-1.50879E-001	-2.00885E-001	-1.75882E-001	1.29886E-008	-8.85354E-009	2.18421E-008	-2.01000E-001	3.29623E-004	6	..........a	-327.68
	88	17.8	-1.48787E-001	-1.98877E-001	-1.73832E-001	1.29879E-008	-8.52267E-009	2.15106E-008	-1.99000E-001	3.46623E-004	6	..........a	-327.68
	89	18	-1.46822E-001	-1.96860E-001	-1.71841E-001	1.29947E-008	-8.50467E-009	2.14994E-008	-1.97000E-001	3.26206E-004	6	..........a	-327.68
	90	18.2	-1.44858E-001	-1.94847E-001	-1.69852E-001	1.30057E-008	-8.14179E-009	2.11475E-008	-1.95000E-001	3.40956E-004	6	..........a	-327.68
	91	18.4	-1.42874E-001	-1.92872E-001	-1.67873E-001	1.29372E-008	-8.04044E-009	2.09777E-008	-1.93000E-001	3.30873E-004	6	..........a	-327.68
	92	18.6	-1.40857E-001	-1.90911E-001	-1.65884E-001	1.30444E-008	-7.79124E-009	2.08356E-008	-1.91000E-001	3.31123E-004	6	..........a	-327.68
	93	18.8	-1.38750E-001	-1.88777E-001	-1.63764E-001	1.30406E-008	-7.62355E-009	2.06641E-008	-1.89000E-001	3.21289E-004	6	..........a	-327.68
	94	19	-1.36851E-001	-1.86836E-001	-1.61843E-001	1.29922E-008	-7.45403E-009	2.04463E-008	-1.87000E-001	3.32789E-004	6	..........a	-327.68
	95	19.2	-1.34870E-001	-1.84873E-001	-1.59872E-001	1.31546E-008	-7.35719E-009	2.05118E-008	-1.85000E-001	3.24956E-004	6	..........a	-327.68
	96	19.4	-1.32713E-001	-1.82864E-001	-1.57789E-001	1.32014E-008	-6.99781E-009	2.01992E-008	-1.83000E-001	3.21873E-004	6	..........a	-327.68
	97	19.6	-1.30770E-001	-1.80814E-001	-1.55792E-001	1.31713E-008	-6.85929E-009	2.00305E-008	-1.81000E-001	3.33289E-004	6	..........a	-327.68
	98	19.8	-1.28800E-001	-1.78830E-001	-1.53815E-001	1.33498E-008	-6.74694E-009	2.00967E-008	-1.79000E-001	3.32123E-004	6	..........a	-327.68
	99	20	-1.26870E-001	-1.76859E-001	-1.51865E-001	1.32711E-008	-6.73761E-009	2.00087E-008	-1.77000E-001	3.32373E-004	6	..........a	-327.68
	100	20.2	-1.24767E-001	-1.74871E-001	-1.49819E-001	1.34256E-008	-6.55758E-009	1.99832E-008	-1.75000E-001	3.38789E-004	6	..........a	-327.68
