EXPLAIN
TAG	SQUARE_WAVE
TITLE	LABEL	Square Wave Voltammetry	Test Identifier
DATE	LABEL	8/25/2020	Date
TIME	LABEL	13:06:39	Time
NOTES	NOTES	1	Notes...
	
PSTAT	PSTAT	REF600-24079	Potentiostat
VINIT	QUANT	-3.50000E-001	Initial E (V)
VFINAL	QUANT	-1.50000E-001	Final E (V)
STEPSIZE	QUANT	2.00000E+000	Step Size (mV)
TIMERRES	QUANT	3.33340E-005	&Timer Resolution
FREQUENCY	QUANT	1.00000E+001	Frequency (Hz)
PULSESIZE	QUANT	2.50000E+001	Pulse Size E (mV)
PULSEON	QUANT	1.00000E-001	Pulse &Time (s)
NOISEREJECT	TOGGLE	F	Noise Rejection
AREA	QUANT	2.00000E-002	Sample Area (cm^2)
IMODE	SELECTOR	1	I/E Range Mode
IRANGE	QUANT	1.00000E-003	Max Current (mA)
EQDELAY	IQUANT	10	Equil. Time (s)
IRCOMP	SELECTOR	0	IRComp
PFCOR	QUANT	5.00000E+001	PF Corr. (ohm)
CYCLES	IQUANT	101	C&ycles (#)
ELECTRODETYPE	SELECTOR	0	Electrode Type
STRIPPING	TOGGLE	F	Used for Stripping
POLARITY	TOGGLE	F	Signal Polarity
LINEFREQ	IQUANT	60	Line Frequency (Hz)
INTPERIOD	QUANT	3.3334E-005	Integration Period (s)
SEQUENCER	TOGGLE	TRUE	Run as Sequence
PSTATMODEL	IQUANT	4	Pstat Model
PSTATSECTION	LABEL	REF600-24079	Pstat Section
PSTATSERIALNO	LABEL	24079	Pstat Serial Number
CTRLMODE	IQUANT	1	Control Mode
ELECTROMETER	IQUANT	0	RE=0 or CS=1
IESTAB	IQUANT	2	I/E Stability
CASPEED	IQUANT	6	Control Amp Speed
CONVENTION	IQUANT	1	Current Convention
ICHRANGE	IQUANT	2	Ich Range
ICHRANGEMODE	TOGGLE	F	Ich Auto Range
ICHOFFSETENABLE	TOGGLE	F	Ich Offset Enable
ICHOFFSET	QUANT	0	Ich Offset (V)
ICHFILTER	IQUANT	2	Ich Filter
VCHRANGE	IQUANT	2	Vch Range
VCHRANGEMODE	TOGGLE	F	Vch Auto Range
VCHOFFSETENABLE	TOGGLE	F	Vch Offset Enable
VCHOFFSET	QUANT	0	Vch Offset (V)
VCHFILTER	IQUANT	2	Vch Filter
ACHRANGE	IQUANT	2	Ach Range
ACHOFFSETENABLE	TOGGLE	F	Ach Offset Enable
ACHOFFSET	QUANT	0	Ach Offset (V)
ACHFILTER	IQUANT	1	Ach Filter
IERANGELOWERLIMIT	IQUANT	1	I/E Range Lower Limit
IERANGEMODE	TOGGLE	F	I/E AutoRange
IERANGE	IQUANT	6	I/E Range
POSFEEDENABLE	TOGGLE	F	Positive Feedback IR Comp
POSFEEDRESISTANCE	QUANT	0	Positive Feedback Resistance (ohm)
ACHSELECT	IQUANT	0	Ach Select
SENSECABLEID	IQUANT	13	Sense Cable ID
PWRCABLEID	IQUANT	13	Power Cable ID
DCCALDATE	LABEL	6/30/2020	DC Calibration Date
ACCALDATE	LABEL	6/30/2020	AC Calibration Date
THERMOSELECT	IQUANT	1	Thermo Select
FRAMEWORKVERSION	LABEL	7.8.2	Framework Version
INSTRUMENTVERSION	LABEL	4.40	Instrument Version
CURVE	TABLE	101
	Pt	T	Vfwd	Vrev	Vstep	Ifwd	Irev	Idif	Sig	Ach	IERange	Over	Temp
	#	s	V	V	V	A	A	A	V	V	#	bits	deg C
	0	0.1	-3.25028E-001	-3.74996E-001	-3.50012E-001	-8.20413E-009	-3.67891E-008	2.85850E-008	-3.75000E-001	4.50039E-004	6	..........a	-327.68
	1	0.2	-3.22973E-001	-3.73021E-001	-3.47997E-001	2.47090E-009	-3.22272E-008	3.46981E-008	-3.73000E-001	4.45539E-004	6	..........a	-327.68
	2	0.3	-3.21060E-001	-3.70942E-001	-3.46001E-001	4.72952E-009	-3.04360E-008	3.51655E-008	-3.71000E-001	4.52206E-004	6	..........a	-327.68
	3	0.4	-3.19028E-001	-3.69111E-001	-3.44070E-001	6.17937E-009	-2.93025E-008	3.54819E-008	-3.69000E-001	4.57706E-004	6	..........a	-327.68
	4	0.5	-3.17083E-001	-3.67016E-001	-3.42050E-001	6.85946E-009	-2.83910E-008	3.52505E-008	-3.67000E-001	4.43873E-004	6	..........a	-327.68
	5	0.6	-3.14970E-001	-3.65062E-001	-3.40016E-001	7.81524E-009	-2.79016E-008	3.57169E-008	-3.65000E-001	4.51206E-004	6	..........a	-327.68
	6	0.7	-3.13106E-001	-3.62936E-001	-3.38021E-001	8.23530E-009	-2.72309E-008	3.54662E-008	-3.63000E-001	4.48206E-004	6	..........a	-327.68
	7	0.8	-3.11020E-001	-3.61082E-001	-3.36051E-001	8.91638E-009	-2.68818E-008	3.57982E-008	-3.61000E-001	4.49706E-004	6	..........a	-327.68
	8	0.9	-3.09071E-001	-3.59003E-001	-3.34037E-001	9.55747E-009	-2.65918E-008	3.61493E-008	-3.59000E-001	4.53039E-004	6	..........a	-327.68
	9	1	-3.06950E-001	-3.57097E-001	-3.32023E-001	9.97119E-009	-2.61064E-008	3.60776E-008	-3.57000E-001	4.62539E-004	6	..........a	-327.68
	10	1.1	-3.05094E-001	-3.54958E-001	-3.30026E-001	1.07153E-008	-2.57174E-008	3.64326E-008	-3.55000E-001	4.57373E-004	6	..........a	-327.68
	11	1.2	-3.03059E-001	-3.53079E-001	-3.28069E-001	1.12493E-008	-2.56173E-008	3.68667E-008	-3.53000E-001	4.51539E-004	6	..........a	-327.68
	12	1.3	-3.01096E-001	-3.50977E-001	-3.26036E-001	1.17304E-008	-2.52673E-008	3.69977E-008	-3.51000E-001	4.55706E-004	6	..........a	-327.68
	13	1.4	-2.98961E-001	-3.49030E-001	-3.23995E-001	1.24265E-008	-2.52683E-008	3.76948E-008	-3.49000E-001	4.49706E-004	6	..........a	-327.68
	14	1.5	-2.97089E-001	-3.46980E-001	-3.22034E-001	1.29782E-008	-2.51053E-008	3.80835E-008	-3.47000E-001	4.60539E-004	6	..........a	-327.68
	15	1.6	-2.95015E-001	-3.45126E-001	-3.20071E-001	1.38347E-008	-2.51029E-008	3.89376E-008	-3.45000E-001	4.47039E-004	6	..........a	-327.68
	16	1.7	-2.93032E-001	-3.43014E-001	-3.18023E-001	1.44821E-008	-2.50879E-008	3.95700E-008	-3.43000E-001	4.56206E-004	6	..........a	-327.68
	17	1.8	-2.90917E-001	-3.41058E-001	-3.15987E-001	1.54419E-008	-2.51960E-008	4.06378E-008	-3.41000E-001	4.43706E-004	6	..........a	-327.68
	18	1.9	-2.89106E-001	-3.38954E-001	-3.14030E-001	1.62527E-008	-2.52770E-008	4.15296E-008	-3.39000E-001	4.54206E-004	6	..........a	-327.68
	19	2	-2.87035E-001	-3.37074E-001	-3.12055E-001	1.70454E-008	-2.54507E-008	4.24961E-008	-3.37000E-001	4.45706E-004	6	..........a	-327.68
	20	2.1	-2.85112E-001	-3.34999E-001	-3.10055E-001	1.81816E-008	-2.57120E-008	4.38936E-008	-3.35000E-001	4.55373E-004	6	..........a	-327.68
	21	2.2	-2.82958E-001	-3.33072E-001	-3.08015E-001	1.88957E-008	-2.59210E-008	4.48167E-008	-3.33000E-001	4.47373E-004	6	..........a	-327.68
	22	2.3	-2.81113E-001	-3.30948E-001	-3.06030E-001	1.98548E-008	-2.64084E-008	4.62632E-008	-3.31000E-001	4.58373E-004	6	..........a	-327.68
	23	2.4	-2.79046E-001	-3.29077E-001	-3.04062E-001	2.10016E-008	-2.66898E-008	4.76914E-008	-3.29000E-001	4.52539E-004	6	..........a	-327.68
	24	2.5	-2.77089E-001	-3.26990E-001	-3.02040E-001	2.21544E-008	-2.73146E-008	4.94690E-008	-3.27000E-001	4.45039E-004	6	..........a	-327.68
	25	2.6	-2.74975E-001	-3.25045E-001	-3.00010E-001	2.32895E-008	-2.78353E-008	5.11248E-008	-3.25000E-001	4.48039E-004	6	..........a	-327.68
	26	2.7	-2.73071E-001	-3.22974E-001	-2.98022E-001	2.44450E-008	-2.85130E-008	5.29581E-008	-3.23000E-001	4.47039E-004	6	..........a	-327.68
	27	2.8	-2.71009E-001	-3.21015E-001	-2.96012E-001	2.55902E-008	-2.90391E-008	5.46293E-008	-3.21000E-001	4.53206E-004	6	..........a	-327.68
	28	2.9	-2.69048E-001	-3.19043E-001	-2.94045E-001	2.69047E-008	-2.96452E-008	5.65499E-008	-3.19000E-001	4.45206E-004	6	..........a	-327.68
	29	3	-2.66915E-001	-3.17077E-001	-2.91996E-001	2.81708E-008	-3.06376E-008	5.88085E-008	-3.17000E-001	4.47873E-004	6	..........a	-327.68
	30	3.1	-2.65117E-001	-3.14953E-001	-2.90035E-001	2.93293E-008	-3.12717E-008	6.06010E-008	-3.15000E-001	4.47873E-004	6	..........a	-327.68
	31	3.2	-2.62991E-001	-3.13083E-001	-2.88037E-001	3.03194E-008	-3.22769E-008	6.25963E-008	-3.13000E-001	4.55039E-004	6	..........a	-327.68
	32	3.3	-2.61107E-001	-3.11010E-001	-2.86058E-001	3.13769E-008	-3.32877E-008	6.46646E-008	-3.11000E-001	4.51039E-004	6	..........a	-327.68
	33	3.4	-2.58948E-001	-3.09066E-001	-2.84007E-001	3.23534E-008	-3.41084E-008	6.64618E-008	-3.09000E-001	4.44873E-004	6	..........a	-327.68
	34	3.5	-2.57095E-001	-3.06950E-001	-2.82023E-001	3.32848E-008	-3.49889E-008	6.82737E-008	-3.07000E-001	4.45539E-004	6	..........a	-327.68
	35	3.6	-2.55029E-001	-3.05101E-001	-2.80065E-001	3.40169E-008	-3.57610E-008	6.97779E-008	-3.05000E-001	4.51539E-004	6	..........a	-327.68
	36	3.7	-2.53095E-001	-3.03041E-001	-2.78068E-001	3.45763E-008	-3.69121E-008	7.14884E-008	-3.03000E-001	4.48873E-004	6	..........a	-327.68
	37	3.8	-2.50965E-001	-3.01078E-001	-2.76021E-001	3.52841E-008	-3.79836E-008	7.32677E-008	-3.01000E-001	4.37373E-004	6	..........a	-327.68
	38	3.9	-2.49081E-001	-2.98965E-001	-2.74023E-001	3.55218E-008	-3.86987E-008	7.42204E-008	-2.99000E-001	4.49706E-004	6	..........a	-327.68
	39	4	-2.46984E-001	-2.97051E-001	-2.72018E-001	3.58768E-008	-3.94774E-008	7.53543E-008	-2.97000E-001	4.37873E-004	6	..........a	-327.68
	40	4.1	-2.45026E-001	-2.94989E-001	-2.70008E-001	3.60505E-008	-4.00455E-008	7.60960E-008	-2.95000E-001	4.34373E-004	6	..........a	-327.68
	41	4.2	-2.42968E-001	-2.93043E-001	-2.68005E-001	3.60612E-008	-4.06939E-008	7.67551E-008	-2.93000E-001	4.37706E-004	6	..........a	-327.68
	42	4.3	-2.41125E-001	-2.90932E-001	-2.66029E-001	3.58445E-008	-4.13093E-008	7.71538E-008	-2.91000E-001	4.42373E-004	6	..........a	-327.68
	43	4.4	-2.39030E-001	-2.89091E-001	-2.64060E-001	3.57301E-008	-4.14927E-008	7.72228E-008	-2.89000E-001	4.38706E-004	6	..........a	-327.68
	44	4.5	-2.37065E-001	-2.86971E-001	-2.62018E-001	3.54578E-008	-4.18067E-008	7.72645E-008	-2.87000E-001	4.37706E-004	6	..........a	-327.68
	45	4.6	-2.34950E-001	-2.85089E-001	-2.60019E-001	3.50247E-008	-4.19904E-008	7.70151E-008	-2.85000E-001	4.35373E-004	6	..........a	-327.68
	46	4.7	-2.33092E-001	-2.82958E-001	-2.58025E-001	3.44446E-008	-4.19351E-008	7.63797E-008	-2.83000E-001	4.42206E-004	6	..........a	-327.68
	47	4.8	-2.31003E-001	-2.81111E-001	-2.56057E-001	3.38042E-008	-4.17191E-008	7.55233E-008	-2.81000E-001	4.49206E-004	6	..........a	-327.68
	48	4.9	-2.29095E-001	-2.79003E-001	-2.54049E-001	3.31941E-008	-4.13857E-008	7.45798E-008	-2.79000E-001	4.35539E-004	6	..........a	-327.68
	49	5	-2.26955E-001	-2.77074E-001	-2.52015E-001	3.23310E-008	-4.09380E-008	7.32690E-008	-2.77000E-001	4.40206E-004	6	..........a	-327.68
	50	5.1	-2.25087E-001	-2.74960E-001	-2.50023E-001	3.17226E-008	-4.04819E-008	7.22045E-008	-2.75000E-001	4.48873E-004	6	..........a	-327.68
	51	5.2	-2.22994E-001	-2.73058E-001	-2.48026E-001	3.09082E-008	-3.96131E-008	7.05213E-008	-2.73000E-001	4.37206E-004	6	..........a	-327.68
	52	5.3	-2.21063E-001	-2.70993E-001	-2.46028E-001	3.03711E-008	-3.89350E-008	6.93062E-008	-2.71000E-001	4.47539E-004	6	..........a	-327.68
	53	5.4	-2.18991E-001	-2.69031E-001	-2.44011E-001	2.95300E-008	-3.81683E-008	6.76983E-008	-2.69000E-001	4.53039E-004	6	..........a	-327.68
	54	5.5	-2.17122E-001	-2.66907E-001	-2.42014E-001	2.86822E-008	-3.71295E-008	6.58117E-008	-2.67000E-001	4.58706E-004	6	..........a	-327.68
	55	5.6	-2.15010E-001	-2.65114E-001	-2.40062E-001	2.78391E-008	-3.58376E-008	6.36768E-008	-2.65000E-001	4.47373E-004	6	..........a	-327.68
	56	5.7	-2.13071E-001	-2.62971E-001	-2.38021E-001	2.71690E-008	-3.46195E-008	6.17885E-008	-2.63000E-001	4.44706E-004	6	..........a	-327.68
	57	5.8	-2.10967E-001	-2.61069E-001	-2.36018E-001	2.63836E-008	-3.34080E-008	5.97916E-008	-2.61000E-001	4.45039E-004	6	..........a	-327.68
	58	5.9	-2.09086E-001	-2.58946E-001	-2.34016E-001	2.54818E-008	-3.23729E-008	5.78547E-008	-2.59000E-001	4.44539E-004	6	..........a	-327.68
	59	6	-2.07023E-001	-2.57063E-001	-2.32043E-001	2.47787E-008	-3.12054E-008	5.59841E-008	-2.57000E-001	4.44206E-004	6	..........a	-327.68
	60	6.1	-2.05097E-001	-2.55019E-001	-2.30058E-001	2.42123E-008	-2.98395E-008	5.40519E-008	-2.55000E-001	4.45206E-004	6	..........a	-327.68
	61	6.2	-2.02955E-001	-2.53069E-001	-2.28012E-001	2.36469E-008	-2.86141E-008	5.22610E-008	-2.53000E-001	4.49206E-004	6	..........a	-327.68
	62	6.3	-2.01101E-001	-2.50960E-001	-2.26030E-001	2.29685E-008	-2.74069E-008	5.03754E-008	-2.51000E-001	4.47206E-004	6	..........a	-327.68
	63	6.4	-1.99026E-001	-2.49046E-001	-2.24036E-001	2.24858E-008	-2.60307E-008	4.85165E-008	-2.49000E-001	4.49206E-004	6	..........a	-327.68
	64	6.5	-1.97079E-001	-2.46976E-001	-2.22028E-001	2.20004E-008	-2.50999E-008	4.71003E-008	-2.47000E-001	4.46706E-004	6	..........a	-327.68
	65	6.6	-1.94996E-001	-2.45015E-001	-2.20005E-001	2.14210E-008	-2.39271E-008	4.53481E-008	-2.45000E-001	4.56373E-004	6	..........a	-327.68
	66	6.7	-1.93052E-001	-2.42939E-001	-2.17996E-001	2.11563E-008	-2.27270E-008	4.38833E-008	-2.43000E-001	4.53706E-004	6	..........a	-327.68
	67	6.8	-1.91076E-001	-2.41122E-001	-2.16099E-001	2.07286E-008	-2.19315E-008	4.26601E-008	-2.41000E-001	4.52373E-004	6	..........a	-327.68
	68	6.9	-1.89106E-001	-2.39013E-001	-2.14059E-001	2.03432E-008	-2.10331E-008	4.13763E-008	-2.39000E-001	4.50539E-004	6	..........a	-327.68
	69	7	-1.86940E-001	-2.37049E-001	-2.11995E-001	2.00978E-008	-1.98606E-008	3.99584E-008	-2.37000E-001	4.59706E-004	6	..........a	-327.68
	70	7.1	-1.85101E-001	-2.34941E-001	-2.10021E-001	2.00401E-008	-1.90608E-008	3.91010E-008	-2.35000E-001	4.48706E-004	6	..........a	-327.68
	71	7.2	-1.83046E-001	-2.33087E-001	-2.08066E-001	1.96998E-008	-1.84228E-008	3.81225E-008	-2.33000E-001	4.51039E-004	6	..........a	-327.68
	72	7.3	-1.81097E-001	-2.30999E-001	-2.06048E-001	1.93680E-008	-1.76817E-008	3.70497E-008	-2.31000E-001	4.61873E-004	6	..........a	-327.68
	73	7.4	-1.78950E-001	-2.29076E-001	-2.04013E-001	1.91010E-008	-1.70259E-008	3.61269E-008	-2.29000E-001	4.61873E-004	6	..........a	-327.68
	74	7.5	-1.77100E-001	-2.26949E-001	-2.02024E-001	1.90480E-008	-1.63052E-008	3.53532E-008	-2.27000E-001	4.52706E-004	6	..........a	-327.68
	75	7.6	-1.75032E-001	-2.25066E-001	-2.00049E-001	1.87866E-008	-1.56664E-008	3.44531E-008	-2.25000E-001	4.50706E-004	6	..........a	-327.68
	76	7.7	-1.73095E-001	-2.22969E-001	-1.98032E-001	1.86146E-008	-1.55074E-008	3.41220E-008	-2.23000E-001	4.52539E-004	6	..........a	-327.68
	77	7.8	-1.70959E-001	-2.21032E-001	-1.95996E-001	1.84123E-008	-1.48706E-008	3.32829E-008	-2.21000E-001	4.44373E-004	6	..........a	-327.68
	78	7.9	-1.69070E-001	-2.18957E-001	-1.94013E-001	1.82922E-008	-1.44763E-008	3.27685E-008	-2.19000E-001	4.51873E-004	6	..........a	-327.68
	79	8	-1.66979E-001	-2.17120E-001	-1.92050E-001	1.82389E-008	-1.39959E-008	3.22348E-008	-2.17000E-001	4.51373E-004	6	..........a	-327.68
	80	8.1	-1.65039E-001	-2.14990E-001	-1.90015E-001	1.81206E-008	-1.37565E-008	3.18771E-008	-2.15000E-001	4.55873E-004	6	..........a	-327.68
	81	8.2	-1.62925E-001	-2.13026E-001	-1.87976E-001	1.80862E-008	-1.32408E-008	3.13270E-008	-2.13000E-001	4.53706E-004	6	..........a	-327.68
	82	8.3	-1.61083E-001	-2.10922E-001	-1.86003E-001	1.80579E-008	-1.31421E-008	3.12000E-008	-2.11000E-001	4.52706E-004	6	..........a	-327.68
	83	8.4	-1.59017E-001	-2.09081E-001	-1.84049E-001	1.80055E-008	-1.28300E-008	3.08356E-008	-2.09000E-001	4.54539E-004	6	..........a	-327.68
	84	8.5	-1.57104E-001	-2.06986E-001	-1.82045E-001	1.81466E-008	-1.24313E-008	3.05779E-008	-2.07000E-001	4.46373E-004	6	..........a	-327.68
	85	8.6	-1.54954E-001	-2.05067E-001	-1.80011E-001	1.80442E-008	-1.23520E-008	3.03962E-008	-2.05000E-001	4.47706E-004	6	..........a	-327.68
	86	8.7	-1.53121E-001	-2.02941E-001	-1.78031E-001	1.79229E-008	-1.19836E-008	2.99065E-008	-2.03000E-001	4.46039E-004	6	..........a	-327.68
	87	8.8	-1.51035E-001	-2.01076E-001	-1.76055E-001	1.78325E-008	-1.19159E-008	2.97485E-008	-2.01000E-001	4.46539E-004	6	..........a	-327.68
	88	8.9	-1.49094E-001	-1.98987E-001	-1.74040E-001	1.78869E-008	-1.18149E-008	2.97018E-008	-1.99000E-001	4.55039E-004	6	..........a	-327.68
	89	9	-1.46971E-001	-1.97035E-001	-1.72003E-001	1.80009E-008	-1.17079E-008	2.97088E-008	-1.97000E-001	4.52873E-004	6	..........a	-327.68
	90	9.1	-1.45072E-001	-1.94962E-001	-1.70017E-001	1.79419E-008	-1.13449E-008	2.92867E-008	-1.95000E-001	4.51873E-004	6	..........a	-327.68
	91	9.2	-1.43002E-001	-1.93015E-001	-1.68009E-001	1.79735E-008	-1.14279E-008	2.94014E-008	-1.93000E-001	4.54873E-004	6	..........a	-327.68
	92	9.3	-1.41037E-001	-1.91015E-001	-1.66026E-001	1.80896E-008	-1.10932E-008	2.91827E-008	-1.91000E-001	4.54206E-004	6	..........a	-327.68
	93	9.4	-1.38905E-001	-1.89068E-001	-1.63986E-001	1.80382E-008	-1.09948E-008	2.90330E-008	-1.89000E-001	4.48373E-004	6	..........a	-327.68
	94	9.5	-1.37118E-001	-1.86927E-001	-1.62023E-001	1.81549E-008	-1.09655E-008	2.91204E-008	-1.87000E-001	4.54373E-004	6	..........a	-327.68
	95	9.6	-1.34998E-001	-1.85076E-001	-1.60037E-001	1.79685E-008	-1.07958E-008	2.87643E-008	-1.85000E-001	4.57206E-004	6	..........a	-327.68
	96	9.7	-1.33097E-001	-1.82994E-001	-1.58046E-001	1.81836E-008	-1.05141E-008	2.86977E-008	-1.83000E-001	4.58039E-004	6	..........a	-327.68
	97	9.8	-1.30942E-001	-1.81059E-001	-1.56000E-001	1.82406E-008	-1.04201E-008	2.86606E-008	-1.81000E-001	4.48873E-004	6	..........a	-327.68
	98	9.9	-1.29098E-001	-1.78948E-001	-1.54023E-001	1.81559E-008	-1.04477E-008	2.86036E-008	-1.79000E-001	4.57373E-004	6	..........a	-327.68
	99	10	-1.27035E-001	-1.77075E-001	-1.52055E-001	1.83966E-008	-1.04084E-008	2.88050E-008	-1.77000E-001	4.52706E-004	6	..........a	-327.68
	100	10.1	-1.25096E-001	-1.75011E-001	-1.50054E-001	1.83482E-008	-1.01244E-008	2.84726E-008	-1.75000E-001	4.51873E-004	6	..........a	-327.68
