EXPLAIN
TAG	SQUARE_WAVE
TITLE	LABEL	Square Wave Voltammetry	Test Identifier
DATE	LABEL	8/31/2020	Date
TIME	LABEL	14:30:08	Time
NOTES	NOTES	1	Notes...
	
PSTAT	PSTAT	REF600-24079	Potentiostat
VINIT	QUANT	-3.50000E-001	Initial E (V)
VFINAL	QUANT	-1.50000E-001	Final E (V)
STEPSIZE	QUANT	2.00000E+000	Step Size (mV)
TIMERRES	QUANT	3.33340E-005	&Timer Resolution
FREQUENCY	QUANT	2.50000E+001	Frequency (Hz)
PULSESIZE	QUANT	2.50000E+001	Pulse Size E (mV)
PULSEON	QUANT	4.00000E-002	Pulse &Time (s)
NOISEREJECT	TOGGLE	F	Noise Rejection
AREA	QUANT	2.00000E-002	Sample Area (cm^2)
IMODE	SELECTOR	1	I/E Range Mode
IRANGE	QUANT	1.00000E-003	Max Current (mA)
EQDELAY	IQUANT	10	Equil. Time (s)
IRCOMP	SELECTOR	0	IRComp
PFCOR	QUANT	5.00000E+001	PF Corr. (ohm)
CYCLES	IQUANT	101	C&ycles (#)
ELECTRODETYPE	SELECTOR	0	Electrode Type
STRIPPING	TOGGLE	F	Used for Stripping
POLARITY	TOGGLE	F	Signal Polarity
LINEFREQ	IQUANT	60	Line Frequency (Hz)
INTPERIOD	QUANT	3.3334E-005	Integration Period (s)
SEQUENCER	TOGGLE	TRUE	Run as Sequence
PSTATMODEL	IQUANT	4	Pstat Model
PSTATSECTION	LABEL	REF600-24079	Pstat Section
PSTATSERIALNO	LABEL	24079	Pstat Serial Number
CTRLMODE	IQUANT	1	Control Mode
ELECTROMETER	IQUANT	0	RE=0 or CS=1
IESTAB	IQUANT	2	I/E Stability
CASPEED	IQUANT	6	Control Amp Speed
CONVENTION	IQUANT	1	Current Convention
ICHRANGE	IQUANT	2	Ich Range
ICHRANGEMODE	TOGGLE	F	Ich Auto Range
ICHOFFSETENABLE	TOGGLE	F	Ich Offset Enable
ICHOFFSET	QUANT	0	Ich Offset (V)
ICHFILTER	IQUANT	2	Ich Filter
VCHRANGE	IQUANT	2	Vch Range
VCHRANGEMODE	TOGGLE	F	Vch Auto Range
VCHOFFSETENABLE	TOGGLE	F	Vch Offset Enable
VCHOFFSET	QUANT	0	Vch Offset (V)
VCHFILTER	IQUANT	2	Vch Filter
ACHRANGE	IQUANT	2	Ach Range
ACHOFFSETENABLE	TOGGLE	F	Ach Offset Enable
ACHOFFSET	QUANT	0	Ach Offset (V)
ACHFILTER	IQUANT	1	Ach Filter
IERANGELOWERLIMIT	IQUANT	1	I/E Range Lower Limit
IERANGEMODE	TOGGLE	F	I/E AutoRange
IERANGE	IQUANT	6	I/E Range
POSFEEDENABLE	TOGGLE	F	Positive Feedback IR Comp
POSFEEDRESISTANCE	QUANT	0	Positive Feedback Resistance (ohm)
ACHSELECT	IQUANT	0	Ach Select
SENSECABLEID	IQUANT	13	Sense Cable ID
PWRCABLEID	IQUANT	13	Power Cable ID
DCCALDATE	LABEL	6/30/2020	DC Calibration Date
ACCALDATE	LABEL	6/30/2020	AC Calibration Date
THERMOSELECT	IQUANT	1	Thermo Select
FRAMEWORKVERSION	LABEL	7.8.2	Framework Version
INSTRUMENTVERSION	LABEL	4.40	Instrument Version
CURVE	TABLE	101
	Pt	T	Vfwd	Vrev	Vstep	Ifwd	Irev	Idif	Sig	Ach	IERange	Over	Temp
	#	s	V	V	V	A	A	A	V	V	#	bits	deg C
	0	0.04	-3.24859E-001	-3.75612E-001	-3.50235E-001	-8.15879E-009	-1.89593E-008	1.08005E-008	-3.75000E-001	3.78123E-004	6	..........a	-327.68
	1	0.08	-3.22114E-001	-3.73612E-001	-3.47863E-001	-1.93119E-008	-8.99639E-009	-1.03155E-008	-3.73000E-001	3.56873E-004	6	..........a	-327.68
	2	0.12	-3.20083E-001	-3.71590E-001	-3.45837E-001	-1.14400E-008	-6.23604E-009	-5.20399E-009	-3.71000E-001	3.58539E-004	6	..........a	-327.68
	3	0.16	-3.18117E-001	-3.69596E-001	-3.43857E-001	-7.57288E-009	-5.90600E-009	-1.66688E-009	-3.69000E-001	3.60623E-004	6	..........a	-327.68
	4	0.2	-3.16123E-001	-3.67586E-001	-3.41855E-001	-2.98230E-009	-4.08327E-009	1.10097E-009	-3.67000E-001	3.81873E-004	6	..........a	-327.68
	5	0.24	-3.14113E-001	-3.65619E-001	-3.39866E-001	9.40703E-010	-5.09423E-009	6.03493E-009	-3.65000E-001	3.43956E-004	6	..........a	-327.68
	6	0.28	-3.12094E-001	-3.63604E-001	-3.37849E-001	3.84191E-009	-4.36247E-009	8.20438E-009	-3.63000E-001	3.63956E-004	6	..........a	-327.68
	7	0.32	-3.10100E-001	-3.61595E-001	-3.35847E-001	9.07924E-009	-5.09340E-009	1.41726E-008	-3.61000E-001	3.63539E-004	6	..........a	-327.68
	8	0.36	-3.08096E-001	-3.59588E-001	-3.33842E-001	1.19138E-008	-6.62109E-009	1.85349E-008	-3.59000E-001	3.49373E-004	6	..........a	-327.68
	9	0.4	-3.06135E-001	-3.57616E-001	-3.31876E-001	1.74786E-008	-6.10269E-009	2.35813E-008	-3.57000E-001	3.68956E-004	6	..........a	-327.68
	10	0.44	-3.04097E-001	-3.55614E-001	-3.29856E-001	2.19242E-008	-8.30964E-009	3.02338E-008	-3.55000E-001	3.57289E-004	6	..........a	-327.68
	11	0.48	-3.02136E-001	-3.53608E-001	-3.27872E-001	2.62481E-008	-9.33810E-009	3.55862E-008	-3.53000E-001	3.68539E-004	6	..........a	-327.68
	12	0.52	-3.00122E-001	-3.51601E-001	-3.25862E-001	3.24755E-008	-1.04908E-008	4.29663E-008	-3.51000E-001	3.51039E-004	6	..........a	-327.68
	13	0.56	-2.98130E-001	-3.49609E-001	-3.23870E-001	3.71345E-008	-1.37478E-008	5.08823E-008	-3.49000E-001	3.50206E-004	6	..........a	-327.68
	14	0.6	-2.96125E-001	-3.47634E-001	-3.21879E-001	4.30886E-008	-1.51180E-008	5.82066E-008	-3.47000E-001	3.75623E-004	6	..........a	-327.68
	15	0.64	-2.94113E-001	-3.45586E-001	-3.19849E-001	4.93052E-008	-1.81326E-008	6.74377E-008	-3.45000E-001	3.41456E-004	6	..........a	-327.68
	16	0.68	-2.92139E-001	-3.43560E-001	-3.17850E-001	5.51859E-008	-2.05054E-008	7.56913E-008	-3.43000E-001	3.50206E-004	6	..........a	-327.68
	17	0.72	-2.90150E-001	-3.41591E-001	-3.15871E-001	6.33361E-008	-2.36658E-008	8.70019E-008	-3.41000E-001	3.55206E-004	6	..........a	-327.68
	18	0.76	-2.88088E-001	-3.39596E-001	-3.13842E-001	6.91319E-008	-2.80830E-008	9.72149E-008	-3.39000E-001	3.47289E-004	6	..........a	-327.68
	19	0.8	-2.86106E-001	-3.37609E-001	-3.11858E-001	7.67904E-008	-3.04825E-008	1.07273E-007	-3.37000E-001	3.55623E-004	6	..........a	-327.68
	20	0.84	-2.84115E-001	-3.35587E-001	-3.09851E-001	8.53189E-008	-3.65124E-008	1.21831E-007	-3.35000E-001	3.38539E-004	6	..........a	-327.68
	21	0.88	-2.82145E-001	-3.33613E-001	-3.07879E-001	9.27224E-008	-4.06729E-008	1.33395E-007	-3.33000E-001	3.61456E-004	6	..........a	-327.68
	22	0.92	-2.80111E-001	-3.31612E-001	-3.05862E-001	1.02332E-007	-4.50860E-008	1.47418E-007	-3.31000E-001	3.57706E-004	6	..........a	-327.68
	23	0.96	-2.78123E-001	-3.29623E-001	-3.03873E-001	1.09033E-007	-5.14176E-008	1.60450E-007	-3.29000E-001	3.53539E-004	6	..........a	-327.68
	24	1	-2.76154E-001	-3.27622E-001	-3.01888E-001	1.18359E-007	-5.60374E-008	1.74396E-007	-3.27000E-001	3.68123E-004	6	..........a	-327.68
	25	1.04	-2.74182E-001	-3.25631E-001	-2.99906E-001	1.28132E-007	-6.32083E-008	1.91340E-007	-3.25000E-001	3.45623E-004	6	..........a	-327.68
	26	1.08	-2.72178E-001	-3.23628E-001	-2.97903E-001	1.35847E-007	-6.96733E-008	2.05520E-007	-3.23000E-001	3.51456E-004	6	..........a	-327.68
	27	1.12	-2.70163E-001	-3.21623E-001	-2.95893E-001	1.46049E-007	-7.60474E-008	2.22097E-007	-3.21000E-001	3.58123E-004	6	..........a	-327.68
	28	1.16	-2.68175E-001	-3.19598E-001	-2.93887E-001	1.53641E-007	-8.43468E-008	2.37988E-007	-3.19000E-001	3.51873E-004	6	..........a	-327.68
	29	1.2	-2.66228E-001	-3.17602E-001	-2.91915E-001	1.62629E-007	-9.02209E-008	2.52850E-007	-3.17000E-001	3.54373E-004	6	..........a	-327.68
	30	1.24	-2.64201E-001	-3.15622E-001	-2.89912E-001	1.71511E-007	-9.86770E-008	2.70188E-007	-3.15000E-001	3.49373E-004	6	..........a	-327.68
	31	1.28	-2.62160E-001	-3.13615E-001	-2.87887E-001	1.78606E-007	-1.06075E-007	2.84681E-007	-3.13000E-001	3.56039E-004	6	..........a	-327.68
	32	1.32	-2.60194E-001	-3.11572E-001	-2.85883E-001	1.87218E-007	-1.13240E-007	3.00457E-007	-3.11000E-001	3.60623E-004	6	..........a	-327.68
	33	1.36	-2.58203E-001	-3.09608E-001	-2.83905E-001	1.93115E-007	-1.21828E-007	3.14943E-007	-3.09000E-001	3.50623E-004	6	..........a	-327.68
	34	1.4	-2.56174E-001	-3.07586E-001	-2.81880E-001	1.99756E-007	-1.27259E-007	3.27015E-007	-3.07000E-001	3.61039E-004	6	..........a	-327.68
	35	1.44	-2.54155E-001	-3.05604E-001	-2.79879E-001	2.06273E-007	-1.36196E-007	3.42469E-007	-3.05000E-001	3.58539E-004	6	..........a	-327.68
	36	1.48	-2.52203E-001	-3.03590E-001	-2.77897E-001	2.09953E-007	-1.42974E-007	3.52927E-007	-3.03000E-001	3.63956E-004	6	..........a	-327.68
	37	1.52	-2.50216E-001	-3.01608E-001	-2.75912E-001	2.15430E-007	-1.47937E-007	3.63367E-007	-3.01000E-001	3.59373E-004	6	..........a	-327.68
	38	1.56	-2.48196E-001	-2.99594E-001	-2.73895E-001	2.16817E-007	-1.55738E-007	3.72555E-007	-2.99000E-001	3.68539E-004	6	..........a	-327.68
	39	1.6	-2.46163E-001	-2.97582E-001	-2.71873E-001	2.19233E-007	-1.59652E-007	3.78886E-007	-2.97000E-001	3.68956E-004	6	..........a	-327.68
	40	1.64	-2.44204E-001	-2.95558E-001	-2.69881E-001	2.20855E-007	-1.64592E-007	3.85447E-007	-2.95000E-001	3.70206E-004	6	..........a	-327.68
	41	1.68	-2.42225E-001	-2.93612E-001	-2.67919E-001	2.19796E-007	-1.68188E-007	3.87984E-007	-2.93000E-001	3.61456E-004	6	..........a	-327.68
	42	1.72	-2.40115E-001	-2.91568E-001	-2.65842E-001	2.20045E-007	-1.70530E-007	3.90576E-007	-2.91000E-001	3.72289E-004	6	..........a	-327.68
	43	1.76	-2.38143E-001	-2.89570E-001	-2.63857E-001	2.16851E-007	-1.73888E-007	3.90739E-007	-2.89000E-001	3.51039E-004	6	..........a	-327.68
	44	1.8	-2.36164E-001	-2.87531E-001	-2.61848E-001	2.13516E-007	-1.73553E-007	3.87069E-007	-2.87000E-001	3.67289E-004	6	..........a	-327.68
	45	1.84	-2.34151E-001	-2.85566E-001	-2.59858E-001	2.10462E-007	-1.74776E-007	3.85237E-007	-2.85000E-001	3.43956E-004	6	..........a	-327.68
	46	1.88	-2.32092E-001	-2.83543E-001	-2.57818E-001	2.04199E-007	-1.74048E-007	3.78247E-007	-2.83000E-001	3.54373E-004	6	..........a	-327.68
	47	1.92	-2.30099E-001	-2.81523E-001	-2.55811E-001	1.99699E-007	-1.71805E-007	3.71505E-007	-2.81000E-001	3.54373E-004	6	..........a	-327.68
	48	1.96	-2.28121E-001	-2.79520E-001	-2.53820E-001	1.91896E-007	-1.70231E-007	3.62127E-007	-2.79000E-001	3.49373E-004	6	..........a	-327.68
	49	2	-2.26131E-001	-2.77574E-001	-2.51852E-001	1.84869E-007	-1.66296E-007	3.51166E-007	-2.77000E-001	3.70206E-004	6	..........a	-327.68
	50	2.04	-2.24086E-001	-2.75526E-001	-2.49806E-001	1.77846E-007	-1.63363E-007	3.41208E-007	-2.75000E-001	3.57706E-004	6	..........a	-327.68
	51	2.08	-2.22097E-001	-2.73552E-001	-2.47825E-001	1.68140E-007	-1.58695E-007	3.26836E-007	-2.73000E-001	3.47289E-004	6	..........a	-327.68
	52	2.12	-2.20108E-001	-2.71524E-001	-2.45816E-001	1.60693E-007	-1.52946E-007	3.13638E-007	-2.71000E-001	3.65206E-004	6	..........a	-327.68
	53	2.16	-2.18119E-001	-2.69529E-001	-2.43824E-001	1.50591E-007	-1.48091E-007	2.98681E-007	-2.69000E-001	3.52706E-004	6	..........a	-327.68
	54	2.2	-2.16035E-001	-2.67532E-001	-2.41783E-001	1.41844E-007	-1.40234E-007	2.82078E-007	-2.67000E-001	3.59373E-004	6	..........a	-327.68
	55	2.24	-2.14059E-001	-2.65511E-001	-2.39785E-001	1.33508E-007	-1.34179E-007	2.67687E-007	-2.65000E-001	3.66456E-004	6	..........a	-327.68
	56	2.28	-2.12097E-001	-2.63521E-001	-2.37809E-001	1.22895E-007	-1.27641E-007	2.50536E-007	-2.63000E-001	3.48956E-004	6	..........a	-327.68
	57	2.32	-2.10096E-001	-2.61538E-001	-2.35817E-001	1.15593E-007	-1.19250E-007	2.34843E-007	-2.61000E-001	3.70206E-004	6	..........a	-327.68
	58	2.36	-2.08054E-001	-2.59508E-001	-2.33781E-001	1.05877E-007	-1.13446E-007	2.19322E-007	-2.59000E-001	3.58956E-004	6	..........a	-327.68
	59	2.4	-2.06079E-001	-2.57508E-001	-2.31793E-001	9.67962E-008	-1.04904E-007	2.01700E-007	-2.57000E-001	3.66039E-004	6	..........a	-327.68
	60	2.44	-2.04110E-001	-2.55510E-001	-2.29810E-001	8.89261E-008	-9.79127E-008	1.86839E-007	-2.55000E-001	3.86873E-004	6	..........a	-327.68
	61	2.48	-2.02124E-001	-2.53552E-001	-2.27838E-001	7.97424E-008	-9.07085E-008	1.70451E-007	-2.53000E-001	3.62289E-004	6	..........a	-327.68
	62	2.52	-2.00087E-001	-2.51518E-001	-2.25802E-001	7.36833E-008	-8.28366E-008	1.56520E-007	-2.51000E-001	3.78956E-004	6	..........a	-327.68
	63	2.56	-1.98091E-001	-2.49531E-001	-2.23811E-001	6.54406E-008	-7.67984E-008	1.42239E-007	-2.49000E-001	3.47289E-004	6	..........a	-327.68
	64	2.6	-1.96103E-001	-2.47511E-001	-2.21807E-001	5.82638E-008	-6.87465E-008	1.27010E-007	-2.47000E-001	3.62289E-004	6	..........a	-327.68
	65	2.64	-1.94127E-001	-2.45523E-001	-2.19825E-001	5.23339E-008	-6.26841E-008	1.15018E-007	-2.45000E-001	3.58123E-004	6	..........a	-327.68
	66	2.68	-1.92079E-001	-2.43513E-001	-2.17796E-001	4.50888E-008	-5.62932E-008	1.01382E-007	-2.43000E-001	3.52706E-004	6	..........a	-327.68
	67	2.72	-1.90103E-001	-2.41507E-001	-2.15805E-001	4.12267E-008	-4.93124E-008	9.05390E-008	-2.41000E-001	3.77706E-004	6	..........a	-327.68
	68	2.76	-1.88123E-001	-2.39488E-001	-2.13806E-001	3.46400E-008	-4.41917E-008	7.88317E-008	-2.39000E-001	3.56873E-004	6	..........a	-327.68
	69	2.8	-1.86143E-001	-2.37538E-001	-2.11841E-001	3.01744E-008	-3.71950E-008	6.73694E-008	-2.37000E-001	3.69373E-004	6	..........a	-327.68
	70	2.84	-1.84110E-001	-2.35517E-001	-2.09813E-001	2.61231E-008	-3.27127E-008	5.88358E-008	-2.35000E-001	3.61039E-004	6	..........a	-327.68
	71	2.88	-1.82108E-001	-2.33506E-001	-2.07807E-001	2.08441E-008	-2.74379E-008	4.82820E-008	-2.33000E-001	3.46873E-004	6	..........a	-327.68
	72	2.92	-1.80115E-001	-2.31503E-001	-2.05809E-001	1.82571E-008	-2.23356E-008	4.05927E-008	-2.31000E-001	3.73539E-004	6	..........a	-327.68
	73	2.96	-1.78145E-001	-2.29538E-001	-2.03841E-001	1.42866E-008	-1.82876E-008	3.25741E-008	-2.29000E-001	3.45623E-004	6	..........a	-327.68
	74	3	-1.76138E-001	-2.27513E-001	-2.01825E-001	1.07344E-008	-1.30094E-008	2.37439E-008	-2.27000E-001	3.41873E-004	6	..........a	-327.68
	75	3.04	-1.74150E-001	-2.25524E-001	-1.99837E-001	9.04007E-009	-9.88234E-009	1.89224E-008	-2.25000E-001	3.53539E-004	6	..........a	-327.68
	76	3.08	-1.72143E-001	-2.23501E-001	-1.97822E-001	5.11207E-009	-6.58109E-009	1.16932E-008	-2.23000E-001	3.66456E-004	6	..........a	-327.68
	77	3.12	-1.70159E-001	-2.21527E-001	-1.95843E-001	4.20695E-009	-1.70047E-009	5.90742E-009	-2.21000E-001	3.68539E-004	6	..........a	-327.68
	78	3.16	-1.68166E-001	-2.19503E-001	-1.93834E-001	1.70330E-009	2.73118E-010	1.43018E-009	-2.19000E-001	3.41873E-004	6	..........a	-327.68
	79	3.2	-1.66162E-001	-2.17518E-001	-1.91840E-001	-1.49544E-009	4.59283E-009	-6.08827E-009	-2.17000E-001	3.67289E-004	6	..........a	-327.68
	80	3.24	-1.64139E-001	-2.15483E-001	-1.89811E-001	-1.17040E-009	7.02564E-009	-8.19604E-009	-2.15000E-001	3.52706E-004	6	..........a	-327.68
	81	3.28	-1.62174E-001	-2.13526E-001	-1.87850E-001	-4.68918E-009	9.69765E-009	-1.43868E-008	-2.13000E-001	3.52706E-004	6	..........a	-327.68
	82	3.32	-1.60165E-001	-2.11497E-001	-1.85831E-001	-4.49916E-009	1.29739E-008	-1.74731E-008	-2.11000E-001	3.65623E-004	6	..........a	-327.68
	83	3.36	-1.58165E-001	-2.09491E-001	-1.83828E-001	-6.25188E-009	1.38332E-008	-2.00851E-008	-2.09000E-001	3.57706E-004	6	..........a	-327.68
	84	3.4	-1.56172E-001	-2.07481E-001	-1.81826E-001	-7.56871E-009	1.72995E-008	-2.48682E-008	-2.07000E-001	3.56039E-004	6	..........a	-327.68
	85	3.44	-1.54149E-001	-2.05493E-001	-1.79821E-001	-7.67039E-009	1.86288E-008	-2.62992E-008	-2.05000E-001	3.58539E-004	6	..........a	-327.68
	86	3.48	-1.52176E-001	-2.03520E-001	-1.77848E-001	-9.52063E-009	2.01281E-008	-2.96488E-008	-2.03000E-001	3.63956E-004	6	..........a	-327.68
	87	3.52	-1.50175E-001	-2.01514E-001	-1.75844E-001	-9.01140E-009	2.34494E-008	-3.24608E-008	-2.01000E-001	3.71873E-004	6	..........a	-327.68
	88	3.56	-1.48183E-001	-1.99482E-001	-1.73833E-001	-1.07850E-008	2.34302E-008	-3.42152E-008	-1.99000E-001	3.55623E-004	6	..........a	-327.68
	89	3.6	-1.46184E-001	-1.97507E-001	-1.71846E-001	-1.14167E-008	2.62839E-008	-3.77006E-008	-1.97000E-001	3.58123E-004	6	..........a	-327.68
	90	3.64	-1.44183E-001	-1.95496E-001	-1.69839E-001	-1.07725E-008	2.65981E-008	-3.73706E-008	-1.95000E-001	3.70206E-004	6	..........a	-327.68
	91	3.68	-1.42183E-001	-1.93508E-001	-1.67846E-001	-1.21193E-008	2.76849E-008	-3.98042E-008	-1.93000E-001	3.55623E-004	6	..........a	-327.68
	92	3.72	-1.40196E-001	-1.91502E-001	-1.65849E-001	-1.14642E-008	3.06520E-008	-4.21162E-008	-1.91000E-001	3.61039E-004	6	..........a	-327.68
	93	3.76	-1.38151E-001	-1.89489E-001	-1.63820E-001	-1.25360E-008	3.00419E-008	-4.25779E-008	-1.89000E-001	3.67706E-004	6	..........a	-327.68
	94	3.8	-1.36192E-001	-1.87503E-001	-1.61847E-001	-1.28777E-008	3.24030E-008	-4.52808E-008	-1.87000E-001	3.64373E-004	6	..........a	-327.68
	95	3.84	-1.34181E-001	-1.85488E-001	-1.59835E-001	-1.24518E-008	3.24289E-008	-4.48807E-008	-1.85000E-001	3.73539E-004	6	..........a	-327.68
	96	3.88	-1.32189E-001	-1.83483E-001	-1.57836E-001	-1.33578E-008	3.31623E-008	-4.65201E-008	-1.83000E-001	3.61456E-004	6	..........a	-327.68
	97	3.92	-1.30172E-001	-1.81461E-001	-1.55817E-001	-1.23377E-008	3.50025E-008	-4.73402E-008	-1.81000E-001	3.56039E-004	6	..........a	-327.68
	98	3.96	-1.28164E-001	-1.79468E-001	-1.53816E-001	-1.33661E-008	3.47833E-008	-4.81495E-008	-1.79000E-001	3.38123E-004	6	..........a	-327.68
	99	4	-1.26193E-001	-1.77485E-001	-1.51839E-001	-1.37853E-008	3.60818E-008	-4.98672E-008	-1.77000E-001	3.71039E-004	6	..........a	-327.68
	100	4.04	-1.24180E-001	-1.75468E-001	-1.49824E-001	-1.24785E-008	3.63410E-008	-4.88195E-008	-1.75000E-001	3.66039E-004	6	..........a	-327.68
