EXPLAIN
TAG	SQUARE_WAVE
TITLE	LABEL	Square Wave Voltammetry	Test Identifier
DATE	LABEL	8/25/2020	Date
TIME	LABEL	13:05:58	Time
NOTES	NOTES	1	Notes...
	
PSTAT	PSTAT	REF600-24079	Potentiostat
VINIT	QUANT	-3.50000E-001	Initial E (V)
VFINAL	QUANT	-1.50000E-001	Final E (V)
STEPSIZE	QUANT	2.00000E+000	Step Size (mV)
TIMERRES	QUANT	3.33340E-005	&Timer Resolution
FREQUENCY	QUANT	1.00000E+001	Frequency (Hz)
PULSESIZE	QUANT	2.50000E+001	Pulse Size E (mV)
PULSEON	QUANT	1.00000E-001	Pulse &Time (s)
NOISEREJECT	TOGGLE	F	Noise Rejection
AREA	QUANT	2.00000E-002	Sample Area (cm^2)
IMODE	SELECTOR	1	I/E Range Mode
IRANGE	QUANT	1.00000E-003	Max Current (mA)
EQDELAY	IQUANT	10	Equil. Time (s)
IRCOMP	SELECTOR	0	IRComp
PFCOR	QUANT	5.00000E+001	PF Corr. (ohm)
CYCLES	IQUANT	101	C&ycles (#)
ELECTRODETYPE	SELECTOR	0	Electrode Type
STRIPPING	TOGGLE	F	Used for Stripping
POLARITY	TOGGLE	F	Signal Polarity
LINEFREQ	IQUANT	60	Line Frequency (Hz)
INTPERIOD	QUANT	3.3334E-005	Integration Period (s)
SEQUENCER	TOGGLE	TRUE	Run as Sequence
PSTATMODEL	IQUANT	4	Pstat Model
PSTATSECTION	LABEL	REF600-24079	Pstat Section
PSTATSERIALNO	LABEL	24079	Pstat Serial Number
CTRLMODE	IQUANT	1	Control Mode
ELECTROMETER	IQUANT	0	RE=0 or CS=1
IESTAB	IQUANT	2	I/E Stability
CASPEED	IQUANT	6	Control Amp Speed
CONVENTION	IQUANT	1	Current Convention
ICHRANGE	IQUANT	2	Ich Range
ICHRANGEMODE	TOGGLE	F	Ich Auto Range
ICHOFFSETENABLE	TOGGLE	F	Ich Offset Enable
ICHOFFSET	QUANT	0	Ich Offset (V)
ICHFILTER	IQUANT	2	Ich Filter
VCHRANGE	IQUANT	2	Vch Range
VCHRANGEMODE	TOGGLE	F	Vch Auto Range
VCHOFFSETENABLE	TOGGLE	F	Vch Offset Enable
VCHOFFSET	QUANT	0	Vch Offset (V)
VCHFILTER	IQUANT	2	Vch Filter
ACHRANGE	IQUANT	2	Ach Range
ACHOFFSETENABLE	TOGGLE	F	Ach Offset Enable
ACHOFFSET	QUANT	0	Ach Offset (V)
ACHFILTER	IQUANT	1	Ach Filter
IERANGELOWERLIMIT	IQUANT	1	I/E Range Lower Limit
IERANGEMODE	TOGGLE	F	I/E AutoRange
IERANGE	IQUANT	6	I/E Range
POSFEEDENABLE	TOGGLE	F	Positive Feedback IR Comp
POSFEEDRESISTANCE	QUANT	0	Positive Feedback Resistance (ohm)
ACHSELECT	IQUANT	0	Ach Select
SENSECABLEID	IQUANT	13	Sense Cable ID
PWRCABLEID	IQUANT	13	Power Cable ID
DCCALDATE	LABEL	6/30/2020	DC Calibration Date
ACCALDATE	LABEL	6/30/2020	AC Calibration Date
THERMOSELECT	IQUANT	1	Thermo Select
FRAMEWORKVERSION	LABEL	7.8.2	Framework Version
INSTRUMENTVERSION	LABEL	4.40	Instrument Version
CURVE	TABLE	101
	Pt	T	Vfwd	Vrev	Vstep	Ifwd	Irev	Idif	Sig	Ach	IERange	Over	Temp
	#	s	V	V	V	A	A	A	V	V	#	bits	deg C
	0	0.1	-3.25052E-001	-3.75011E-001	-3.50031E-001	-8.12445E-009	-3.68941E-008	2.87697E-008	-3.75000E-001	4.37706E-004	6	..........a	-327.68
	1	0.2	-3.23005E-001	-3.73046E-001	-3.48025E-001	2.61425E-009	-3.24002E-008	3.50145E-008	-3.73000E-001	4.32873E-004	6	..........a	-327.68
	2	0.3	-3.21074E-001	-3.70975E-001	-3.46025E-001	4.93688E-009	-3.04966E-008	3.54335E-008	-3.71000E-001	4.37206E-004	6	..........a	-327.68
	3	0.4	-3.19032E-001	-3.69125E-001	-3.44078E-001	6.07269E-009	-2.95002E-008	3.55729E-008	-3.69000E-001	4.32373E-004	6	..........a	-327.68
	4	0.5	-3.17110E-001	-3.67021E-001	-3.42066E-001	7.10549E-009	-2.86111E-008	3.57165E-008	-3.67000E-001	4.36706E-004	6	..........a	-327.68
	5	0.6	-3.14980E-001	-3.65071E-001	-3.40025E-001	7.57055E-009	-2.80620E-008	3.56325E-008	-3.65000E-001	4.38373E-004	6	..........a	-327.68
	6	0.7	-3.13110E-001	-3.62952E-001	-3.38031E-001	8.47866E-009	-2.75016E-008	3.59802E-008	-3.63000E-001	4.40373E-004	6	..........a	-327.68
	7	0.8	-3.11034E-001	-3.61094E-001	-3.36064E-001	9.09507E-009	-2.71465E-008	3.62416E-008	-3.61000E-001	4.42873E-004	6	..........a	-327.68
	8	0.9	-3.09092E-001	-3.58996E-001	-3.34044E-001	9.71982E-009	-2.65325E-008	3.62523E-008	-3.59000E-001	4.34206E-004	6	..........a	-327.68
	9	1	-3.06961E-001	-3.57101E-001	-3.32031E-001	1.01772E-008	-2.63241E-008	3.65013E-008	-3.57000E-001	4.35873E-004	6	..........a	-327.68
	10	1.1	-3.05109E-001	-3.54971E-001	-3.30040E-001	1.07583E-008	-2.60161E-008	3.67743E-008	-3.55000E-001	4.35373E-004	6	..........a	-327.68
	11	1.2	-3.03070E-001	-3.53092E-001	-3.28081E-001	1.12557E-008	-2.57054E-008	3.69610E-008	-3.53000E-001	4.44539E-004	6	..........a	-327.68
	12	1.3	-3.01104E-001	-3.50984E-001	-3.26044E-001	1.21231E-008	-2.54700E-008	3.75931E-008	-3.51000E-001	4.32706E-004	6	..........a	-327.68
	13	1.4	-2.98976E-001	-3.49039E-001	-3.24007E-001	1.25845E-008	-2.53470E-008	3.79315E-008	-3.49000E-001	4.41706E-004	6	..........a	-327.68
	14	1.5	-2.97097E-001	-3.46987E-001	-3.22042E-001	1.30619E-008	-2.52130E-008	3.82749E-008	-3.47000E-001	4.35539E-004	6	..........a	-327.68
	15	1.6	-2.95031E-001	-3.45125E-001	-3.20078E-001	1.39584E-008	-2.52170E-008	3.91753E-008	-3.45000E-001	4.39039E-004	6	..........a	-327.68
	16	1.7	-2.93015E-001	-3.43024E-001	-3.18020E-001	1.48201E-008	-2.50629E-008	3.98831E-008	-3.43000E-001	4.41373E-004	6	..........a	-327.68
	17	1.8	-2.90932E-001	-3.41052E-001	-3.15992E-001	1.56196E-008	-2.52190E-008	4.08385E-008	-3.41000E-001	4.41373E-004	6	..........a	-327.68
	18	1.9	-2.89110E-001	-3.38962E-001	-3.14036E-001	1.65810E-008	-2.52693E-008	4.18503E-008	-3.39000E-001	4.34206E-004	6	..........a	-327.68
	19	2	-2.87034E-001	-3.37097E-001	-3.12066E-001	1.73671E-008	-2.54697E-008	4.28368E-008	-3.37000E-001	4.35039E-004	6	..........a	-327.68
	20	2.1	-2.85112E-001	-3.35017E-001	-3.10065E-001	1.82092E-008	-2.56713E-008	4.38806E-008	-3.35000E-001	4.27706E-004	6	..........a	-327.68
	21	2.2	-2.82974E-001	-3.33088E-001	-3.08031E-001	1.93294E-008	-2.61144E-008	4.54438E-008	-3.33000E-001	4.35039E-004	6	..........a	-327.68
	22	2.3	-2.81119E-001	-3.30955E-001	-3.06037E-001	2.02495E-008	-2.65211E-008	4.67706E-008	-3.31000E-001	4.35873E-004	6	..........a	-327.68
	23	2.4	-2.79051E-001	-3.29094E-001	-3.04072E-001	2.13550E-008	-2.69042E-008	4.82591E-008	-3.29000E-001	4.32206E-004	6	..........a	-327.68
	24	2.5	-2.77104E-001	-3.26998E-001	-3.02051E-001	2.25508E-008	-2.72295E-008	4.97803E-008	-3.27000E-001	4.34373E-004	6	..........a	-327.68
	25	2.6	-2.74995E-001	-3.25051E-001	-3.00023E-001	2.36386E-008	-2.79246E-008	5.15632E-008	-3.25000E-001	4.34873E-004	6	..........a	-327.68
	26	2.7	-2.73078E-001	-3.22977E-001	-2.98027E-001	2.47804E-008	-2.84744E-008	5.32548E-008	-3.23000E-001	4.38873E-004	6	..........a	-327.68
	27	2.8	-2.71015E-001	-3.21021E-001	-2.96018E-001	2.59446E-008	-2.90945E-008	5.50390E-008	-3.21000E-001	4.32873E-004	6	..........a	-327.68
	28	2.9	-2.69053E-001	-3.19021E-001	-2.94037E-001	2.71584E-008	-3.00109E-008	5.71693E-008	-3.19000E-001	4.33539E-004	6	..........a	-327.68
	29	3	-2.66924E-001	-3.17105E-001	-2.92014E-001	2.83559E-008	-3.06463E-008	5.90022E-008	-3.17000E-001	4.29539E-004	6	..........a	-327.68
	30	3.1	-2.65127E-001	-3.14966E-001	-2.90046E-001	2.95050E-008	-3.14514E-008	6.09564E-008	-3.15000E-001	4.36039E-004	6	..........a	-327.68
	31	3.2	-2.62980E-001	-3.13092E-001	-2.88036E-001	3.05481E-008	-3.23725E-008	6.29207E-008	-3.13000E-001	4.26206E-004	6	..........a	-327.68
	32	3.3	-2.61111E-001	-3.11013E-001	-2.86062E-001	3.17213E-008	-3.29316E-008	6.46529E-008	-3.11000E-001	4.37706E-004	6	..........a	-327.68
	33	3.4	-2.58975E-001	-3.09084E-001	-2.84029E-001	3.26664E-008	-3.43018E-008	6.69682E-008	-3.09000E-001	4.37373E-004	6	..........a	-327.68
	34	3.5	-2.57104E-001	-3.06967E-001	-2.82036E-001	3.33438E-008	-3.48745E-008	6.82183E-008	-3.07000E-001	4.36039E-004	6	..........a	-327.68
	35	3.6	-2.55026E-001	-3.05108E-001	-2.80067E-001	3.43660E-008	-3.61744E-008	7.05403E-008	-3.05000E-001	4.40706E-004	6	..........a	-327.68
	36	3.7	-2.53108E-001	-3.03035E-001	-2.78071E-001	3.48674E-008	-3.70828E-008	7.19502E-008	-3.03000E-001	4.35706E-004	6	..........a	-327.68
	37	3.8	-2.50985E-001	-3.01085E-001	-2.76035E-001	3.54064E-008	-3.78819E-008	7.32883E-008	-3.01000E-001	4.36539E-004	6	..........a	-327.68
	38	3.9	-2.49081E-001	-2.98979E-001	-2.74030E-001	3.57311E-008	-3.89007E-008	7.46318E-008	-2.99000E-001	4.33039E-004	6	..........a	-327.68
	39	4	-2.46995E-001	-2.97061E-001	-2.72028E-001	3.61332E-008	-3.96508E-008	7.57840E-008	-2.97000E-001	4.34206E-004	6	..........a	-327.68
	40	4.1	-2.45037E-001	-2.94994E-001	-2.70016E-001	3.61062E-008	-4.04082E-008	7.65144E-008	-2.95000E-001	4.33706E-004	6	..........a	-327.68
	41	4.2	-2.42978E-001	-2.93048E-001	-2.68013E-001	3.60308E-008	-4.09536E-008	7.69845E-008	-2.93000E-001	4.34039E-004	6	..........a	-327.68
	42	4.3	-2.41129E-001	-2.90951E-001	-2.66040E-001	3.61082E-008	-4.12283E-008	7.73365E-008	-2.91000E-001	4.33039E-004	6	..........a	-327.68
	43	4.4	-2.39013E-001	-2.89085E-001	-2.64049E-001	3.58288E-008	-4.16851E-008	7.75139E-008	-2.89000E-001	4.31706E-004	6	..........a	-327.68
	44	4.5	-2.37070E-001	-2.86978E-001	-2.62024E-001	3.54511E-008	-4.18057E-008	7.72568E-008	-2.87000E-001	4.36539E-004	6	..........a	-327.68
	45	4.6	-2.34962E-001	-2.85087E-001	-2.60024E-001	3.50797E-008	-4.20778E-008	7.71575E-008	-2.85000E-001	4.28539E-004	6	..........a	-327.68
	46	4.7	-2.33106E-001	-2.82967E-001	-2.58036E-001	3.44696E-008	-4.18167E-008	7.62864E-008	-2.83000E-001	4.33873E-004	6	..........a	-327.68
	47	4.8	-2.31020E-001	-2.81109E-001	-2.56064E-001	3.39966E-008	-4.16654E-008	7.56620E-008	-2.81000E-001	4.37039E-004	6	..........a	-327.68
	48	4.9	-2.29106E-001	-2.79006E-001	-2.54056E-001	3.32691E-008	-4.16924E-008	7.49615E-008	-2.79000E-001	4.31373E-004	6	..........a	-327.68
	49	5	-2.26965E-001	-2.77070E-001	-2.52017E-001	3.25354E-008	-4.11567E-008	7.36920E-008	-2.77000E-001	4.34206E-004	6	..........a	-327.68
	50	5.1	-2.25102E-001	-2.74973E-001	-2.50038E-001	3.16883E-008	-4.04689E-008	7.21572E-008	-2.75000E-001	4.34873E-004	6	..........a	-327.68
	51	5.2	-2.22989E-001	-2.73064E-001	-2.48027E-001	3.10732E-008	-3.95898E-008	7.06630E-008	-2.73000E-001	4.32873E-004	6	..........a	-327.68
	52	5.3	-2.21063E-001	-2.71014E-001	-2.46038E-001	3.02541E-008	-3.87373E-008	6.89914E-008	-2.71000E-001	4.32206E-004	6	..........a	-327.68
	53	5.4	-2.19019E-001	-2.69049E-001	-2.44034E-001	2.93003E-008	-3.81259E-008	6.74262E-008	-2.69000E-001	4.35373E-004	6	..........a	-327.68
	54	5.5	-2.17132E-001	-2.66932E-001	-2.42032E-001	2.85342E-008	-3.68701E-008	6.54043E-008	-2.67000E-001	4.31706E-004	6	..........a	-327.68
	55	5.6	-2.15016E-001	-2.65120E-001	-2.40068E-001	2.80115E-008	-3.58426E-008	6.38541E-008	-2.65000E-001	4.37706E-004	6	..........a	-327.68
	56	5.7	-2.13083E-001	-2.62996E-001	-2.38039E-001	2.70200E-008	-3.46082E-008	6.16282E-008	-2.63000E-001	4.34706E-004	6	..........a	-327.68
	57	5.8	-2.10980E-001	-2.61099E-001	-2.36039E-001	2.63423E-008	-3.33913E-008	5.97336E-008	-2.61000E-001	4.38373E-004	6	..........a	-327.68
	58	5.9	-2.09102E-001	-2.58959E-001	-2.34030E-001	2.56415E-008	-3.22855E-008	5.79270E-008	-2.59000E-001	4.37039E-004	6	..........a	-327.68
	59	6	-2.07022E-001	-2.57095E-001	-2.32058E-001	2.49588E-008	-3.09717E-008	5.59304E-008	-2.57000E-001	4.36873E-004	6	..........a	-327.68
	60	6.1	-2.05104E-001	-2.55047E-001	-2.30075E-001	2.42017E-008	-2.98509E-008	5.40525E-008	-2.55000E-001	4.42539E-004	6	..........a	-327.68
	61	6.2	-2.02974E-001	-2.53088E-001	-2.28031E-001	2.35963E-008	-2.83474E-008	5.19436E-008	-2.53000E-001	4.37039E-004	6	..........a	-327.68
	62	6.3	-2.01108E-001	-2.50971E-001	-2.26039E-001	2.31432E-008	-2.72132E-008	5.03564E-008	-2.51000E-001	4.33706E-004	6	..........a	-327.68
	63	6.4	-1.99031E-001	-2.49062E-001	-2.24047E-001	2.26805E-008	-2.58207E-008	4.85012E-008	-2.49000E-001	4.36373E-004	6	..........a	-327.68
	64	6.5	-1.97086E-001	-2.46987E-001	-2.22036E-001	2.19497E-008	-2.49183E-008	4.68680E-008	-2.47000E-001	4.37873E-004	6	..........a	-327.68
	65	6.6	-1.95009E-001	-2.45033E-001	-2.20021E-001	2.15883E-008	-2.38481E-008	4.54364E-008	-2.45000E-001	4.43373E-004	6	..........a	-327.68
	66	6.7	-1.93080E-001	-2.42984E-001	-2.18032E-001	2.10699E-008	-2.26093E-008	4.36792E-008	-2.43000E-001	4.38206E-004	6	..........a	-327.68
	67	6.8	-1.91075E-001	-2.41125E-001	-2.16100E-001	2.07592E-008	-2.16795E-008	4.24387E-008	-2.41000E-001	4.42706E-004	6	..........a	-327.68
	68	6.9	-1.89119E-001	-2.39011E-001	-2.14065E-001	2.02812E-008	-2.08087E-008	4.10899E-008	-2.39000E-001	4.39206E-004	6	..........a	-327.68
	69	7	-1.86964E-001	-2.37051E-001	-2.12007E-001	1.99148E-008	-2.01046E-008	4.00194E-008	-2.37000E-001	4.45039E-004	6	..........a	-327.68
	70	7.1	-1.85112E-001	-2.34963E-001	-2.10038E-001	1.97061E-008	-1.91519E-008	3.88579E-008	-2.35000E-001	4.41706E-004	6	..........a	-327.68
	71	7.2	-1.83016E-001	-2.33096E-001	-2.08056E-001	1.95981E-008	-1.81764E-008	3.77745E-008	-2.33000E-001	4.34373E-004	6	..........a	-327.68
	72	7.3	-1.81106E-001	-2.30986E-001	-2.06046E-001	1.91127E-008	-1.75446E-008	3.66573E-008	-2.31000E-001	4.39373E-004	6	..........a	-327.68
	73	7.4	-1.78969E-001	-2.29085E-001	-2.04027E-001	1.90403E-008	-1.70349E-008	3.60753E-008	-2.29000E-001	4.40706E-004	6	..........a	-327.68
	74	7.5	-1.77099E-001	-2.26952E-001	-2.02026E-001	1.88847E-008	-1.64118E-008	3.52965E-008	-2.27000E-001	4.34539E-004	6	..........a	-327.68
	75	7.6	-1.75047E-001	-2.25084E-001	-2.00066E-001	1.86133E-008	-1.57491E-008	3.43624E-008	-2.25000E-001	4.34039E-004	6	..........a	-327.68
	76	7.7	-1.73104E-001	-2.22974E-001	-1.98039E-001	1.84443E-008	-1.52027E-008	3.36469E-008	-2.23000E-001	4.29373E-004	6	..........a	-327.68
	77	7.8	-1.70976E-001	-2.21039E-001	-1.96007E-001	1.85229E-008	-1.45876E-008	3.31105E-008	-2.21000E-001	4.29539E-004	6	..........a	-327.68
	78	7.9	-1.69089E-001	-2.18982E-001	-1.94036E-001	1.82762E-008	-1.44543E-008	3.27305E-008	-2.19000E-001	4.32373E-004	6	..........a	-327.68
	79	8	-1.67004E-001	-2.17126E-001	-1.92065E-001	1.81386E-008	-1.40349E-008	3.21734E-008	-2.17000E-001	4.36039E-004	6	..........a	-327.68
	80	8.1	-1.65073E-001	-2.14986E-001	-1.90030E-001	1.79899E-008	-1.36785E-008	3.16684E-008	-2.15000E-001	4.34373E-004	6	..........a	-327.68
	81	8.2	-1.62944E-001	-2.13051E-001	-1.87997E-001	1.80782E-008	-1.31894E-008	3.12676E-008	-2.13000E-001	4.30373E-004	6	..........a	-327.68
	82	8.3	-1.61092E-001	-2.10954E-001	-1.86023E-001	1.78655E-008	-1.31458E-008	3.10113E-008	-2.11000E-001	4.34039E-004	6	..........a	-327.68
	83	8.4	-1.59027E-001	-2.09086E-001	-1.84057E-001	1.79229E-008	-1.29524E-008	3.08753E-008	-2.09000E-001	4.38373E-004	6	..........a	-327.68
	84	8.5	-1.57108E-001	-2.06999E-001	-1.82053E-001	1.79549E-008	-1.24160E-008	3.03709E-008	-2.07000E-001	4.37873E-004	6	..........a	-327.68
	85	8.6	-1.54962E-001	-2.05056E-001	-1.80009E-001	1.78579E-008	-1.21476E-008	3.00055E-008	-2.05000E-001	4.31206E-004	6	..........a	-327.68
	86	8.7	-1.53119E-001	-2.02949E-001	-1.78034E-001	1.78008E-008	-1.18379E-008	2.96388E-008	-2.03000E-001	4.39706E-004	6	..........a	-327.68
	87	8.8	-1.51041E-001	-2.01096E-001	-1.76068E-001	1.77905E-008	-1.17936E-008	2.95841E-008	-2.01000E-001	4.30206E-004	6	..........a	-327.68
	88	8.9	-1.49098E-001	-1.99018E-001	-1.74058E-001	1.78068E-008	-1.16396E-008	2.94464E-008	-1.99000E-001	4.33706E-004	6	..........a	-327.68
	89	9	-1.46985E-001	-1.97053E-001	-1.72019E-001	1.78672E-008	-1.12929E-008	2.91600E-008	-1.97000E-001	4.37873E-004	6	..........a	-327.68
	90	9.1	-1.45087E-001	-1.94972E-001	-1.70029E-001	1.78008E-008	-1.11468E-008	2.89477E-008	-1.95000E-001	4.35373E-004	6	..........a	-327.68
	91	9.2	-1.43027E-001	-1.93039E-001	-1.68033E-001	1.78172E-008	-1.10992E-008	2.89163E-008	-1.93000E-001	4.31539E-004	6	..........a	-327.68
	92	9.3	-1.41071E-001	-1.91006E-001	-1.66038E-001	1.79035E-008	-1.10432E-008	2.89467E-008	-1.91000E-001	4.34706E-004	6	..........a	-327.68
	93	9.4	-1.38931E-001	-1.89081E-001	-1.64006E-001	1.77125E-008	-1.08405E-008	2.85530E-008	-1.89000E-001	4.36706E-004	6	..........a	-327.68
	94	9.5	-1.37118E-001	-1.86951E-001	-1.62034E-001	1.78769E-008	-1.08268E-008	2.87037E-008	-1.87000E-001	4.36539E-004	6	..........a	-327.68
	95	9.6	-1.35025E-001	-1.85097E-001	-1.60061E-001	1.79095E-008	-1.06294E-008	2.85390E-008	-1.85000E-001	4.26206E-004	6	..........a	-327.68
	96	9.7	-1.33107E-001	-1.83001E-001	-1.58054E-001	1.78469E-008	-1.05578E-008	2.84046E-008	-1.83000E-001	4.29539E-004	6	..........a	-327.68
	97	9.8	-1.30958E-001	-1.81074E-001	-1.56016E-001	1.81672E-008	-1.04941E-008	2.86613E-008	-1.81000E-001	4.31539E-004	6	..........a	-327.68
	98	9.9	-1.29104E-001	-1.78958E-001	-1.54031E-001	1.79362E-008	-1.03291E-008	2.82653E-008	-1.79000E-001	4.34206E-004	6	..........a	-327.68
	99	10	-1.27051E-001	-1.77100E-001	-1.52075E-001	1.80539E-008	-1.03354E-008	2.83893E-008	-1.77000E-001	4.34706E-004	6	..........a	-327.68
	100	10.1	-1.25103E-001	-1.75019E-001	-1.50061E-001	1.81736E-008	-1.02711E-008	2.84446E-008	-1.75000E-001	4.39539E-004	6	..........a	-327.68
