EXPLAIN
TAG	SQUARE_WAVE
TITLE	LABEL	Square Wave Voltammetry	Test Identifier
DATE	LABEL	8/31/2020	Date
TIME	LABEL	14:27:16	Time
NOTES	NOTES	1	Notes...
	
PSTAT	PSTAT	REF600-24079	Potentiostat
VINIT	QUANT	-3.50000E-001	Initial E (V)
VFINAL	QUANT	-1.50000E-001	Final E (V)
STEPSIZE	QUANT	2.00000E+000	Step Size (mV)
TIMERRES	QUANT	3.33340E-005	&Timer Resolution
FREQUENCY	QUANT	1.00000E+001	Frequency (Hz)
PULSESIZE	QUANT	2.50000E+001	Pulse Size E (mV)
PULSEON	QUANT	1.00000E-001	Pulse &Time (s)
NOISEREJECT	TOGGLE	F	Noise Rejection
AREA	QUANT	2.00000E-002	Sample Area (cm^2)
IMODE	SELECTOR	1	I/E Range Mode
IRANGE	QUANT	1.00000E-003	Max Current (mA)
EQDELAY	IQUANT	10	Equil. Time (s)
IRCOMP	SELECTOR	0	IRComp
PFCOR	QUANT	5.00000E+001	PF Corr. (ohm)
CYCLES	IQUANT	101	C&ycles (#)
ELECTRODETYPE	SELECTOR	0	Electrode Type
STRIPPING	TOGGLE	F	Used for Stripping
POLARITY	TOGGLE	F	Signal Polarity
LINEFREQ	IQUANT	60	Line Frequency (Hz)
INTPERIOD	QUANT	3.3334E-005	Integration Period (s)
SEQUENCER	TOGGLE	TRUE	Run as Sequence
PSTATMODEL	IQUANT	4	Pstat Model
PSTATSECTION	LABEL	REF600-24079	Pstat Section
PSTATSERIALNO	LABEL	24079	Pstat Serial Number
CTRLMODE	IQUANT	1	Control Mode
ELECTROMETER	IQUANT	0	RE=0 or CS=1
IESTAB	IQUANT	2	I/E Stability
CASPEED	IQUANT	6	Control Amp Speed
CONVENTION	IQUANT	1	Current Convention
ICHRANGE	IQUANT	2	Ich Range
ICHRANGEMODE	TOGGLE	F	Ich Auto Range
ICHOFFSETENABLE	TOGGLE	F	Ich Offset Enable
ICHOFFSET	QUANT	0	Ich Offset (V)
ICHFILTER	IQUANT	2	Ich Filter
VCHRANGE	IQUANT	2	Vch Range
VCHRANGEMODE	TOGGLE	F	Vch Auto Range
VCHOFFSETENABLE	TOGGLE	F	Vch Offset Enable
VCHOFFSET	QUANT	0	Vch Offset (V)
VCHFILTER	IQUANT	2	Vch Filter
ACHRANGE	IQUANT	2	Ach Range
ACHOFFSETENABLE	TOGGLE	F	Ach Offset Enable
ACHOFFSET	QUANT	0	Ach Offset (V)
ACHFILTER	IQUANT	1	Ach Filter
IERANGELOWERLIMIT	IQUANT	1	I/E Range Lower Limit
IERANGEMODE	TOGGLE	F	I/E AutoRange
IERANGE	IQUANT	6	I/E Range
POSFEEDENABLE	TOGGLE	F	Positive Feedback IR Comp
POSFEEDRESISTANCE	QUANT	0	Positive Feedback Resistance (ohm)
ACHSELECT	IQUANT	0	Ach Select
SENSECABLEID	IQUANT	13	Sense Cable ID
PWRCABLEID	IQUANT	13	Power Cable ID
DCCALDATE	LABEL	6/30/2020	DC Calibration Date
ACCALDATE	LABEL	6/30/2020	AC Calibration Date
THERMOSELECT	IQUANT	1	Thermo Select
FRAMEWORKVERSION	LABEL	7.8.2	Framework Version
INSTRUMENTVERSION	LABEL	4.40	Instrument Version
CURVE	TABLE	101
	Pt	T	Vfwd	Vrev	Vstep	Ifwd	Irev	Idif	Sig	Ach	IERange	Over	Temp
	#	s	V	V	V	A	A	A	V	V	#	bits	deg C
	0	0.1	-3.24859E-001	-3.74882E-001	-3.49870E-001	-1.38062E-008	-4.27155E-008	2.89094E-008	-3.75000E-001	3.62873E-004	6	..........a	-327.68
	1	0.2	-3.22855E-001	-3.72886E-001	-3.47870E-001	-3.28250E-009	-3.86293E-008	3.53468E-008	-3.73000E-001	3.56873E-004	6	..........a	-327.68
	2	0.3	-3.20876E-001	-3.70795E-001	-3.45836E-001	-3.54795E-010	-3.67168E-008	3.63620E-008	-3.71000E-001	3.56206E-004	6	..........a	-327.68
	3	0.4	-3.18914E-001	-3.68851E-001	-3.43882E-001	9.65373E-010	-3.58693E-008	3.68347E-008	-3.69000E-001	3.40873E-004	6	..........a	-327.68
	4	0.5	-3.16759E-001	-3.66923E-001	-3.41841E-001	2.16819E-009	-3.51992E-008	3.73674E-008	-3.67000E-001	3.43039E-004	6	..........a	-327.68
	5	0.6	-3.14881E-001	-3.64853E-001	-3.39867E-001	3.32334E-009	-3.46202E-008	3.79435E-008	-3.65000E-001	3.36373E-004	6	..........a	-327.68
	6	0.7	-3.12879E-001	-3.62838E-001	-3.37859E-001	4.19278E-009	-3.43708E-008	3.85636E-008	-3.63000E-001	3.45206E-004	6	..........a	-327.68
	7	0.8	-3.10890E-001	-3.60875E-001	-3.35882E-001	5.35226E-009	-3.42318E-008	3.95840E-008	-3.61000E-001	3.43039E-004	6	..........a	-327.68
	8	0.9	-3.08826E-001	-3.58884E-001	-3.33855E-001	6.34006E-009	-3.39494E-008	4.02895E-008	-3.59000E-001	3.36206E-004	6	..........a	-327.68
	9	1	-3.06832E-001	-3.56850E-001	-3.31841E-001	7.43820E-009	-3.37894E-008	4.12276E-008	-3.57000E-001	3.46039E-004	6	..........a	-327.68
	10	1.1	-3.04865E-001	-3.54852E-001	-3.29859E-001	8.64668E-009	-3.39277E-008	4.25744E-008	-3.55000E-001	3.29206E-004	6	..........a	-327.68
	11	1.2	-3.02900E-001	-3.52878E-001	-3.27889E-001	9.87817E-009	-3.38397E-008	4.37179E-008	-3.53000E-001	3.38706E-004	6	..........a	-327.68
	12	1.3	-3.00856E-001	-3.50883E-001	-3.25869E-001	1.13987E-008	-3.39927E-008	4.53914E-008	-3.51000E-001	3.39539E-004	6	..........a	-327.68
	13	1.4	-2.98853E-001	-3.48883E-001	-3.23868E-001	1.29829E-008	-3.44431E-008	4.74260E-008	-3.49000E-001	3.43873E-004	6	..........a	-327.68
	14	1.5	-2.96888E-001	-3.46866E-001	-3.21877E-001	1.42964E-008	-3.49215E-008	4.92179E-008	-3.47000E-001	3.42373E-004	6	..........a	-327.68
	15	1.6	-2.94887E-001	-3.44852E-001	-3.19870E-001	1.62580E-008	-3.53793E-008	5.16372E-008	-3.45000E-001	3.45373E-004	6	..........a	-327.68
	16	1.7	-2.92764E-001	-3.42916E-001	-3.17840E-001	1.83012E-008	-3.59940E-008	5.42952E-008	-3.43000E-001	3.41873E-004	6	..........a	-327.68
	17	1.8	-2.90842E-001	-3.40773E-001	-3.15807E-001	2.00241E-008	-3.69808E-008	5.70049E-008	-3.41000E-001	3.32373E-004	6	..........a	-327.68
	18	1.9	-2.88899E-001	-3.38847E-001	-3.13873E-001	2.24808E-008	-3.76882E-008	6.01690E-008	-3.39000E-001	3.40373E-004	6	..........a	-327.68
	19	2	-2.86883E-001	-3.36854E-001	-3.11869E-001	2.48044E-008	-3.90491E-008	6.38535E-008	-3.37000E-001	3.54373E-004	6	..........a	-327.68
	20	2.1	-2.84816E-001	-3.34891E-001	-3.09854E-001	2.75281E-008	-4.03345E-008	6.78626E-008	-3.35000E-001	3.44206E-004	6	..........a	-327.68
	21	2.2	-2.82837E-001	-3.32828E-001	-3.07832E-001	3.02934E-008	-4.16717E-008	7.19652E-008	-3.33000E-001	3.47706E-004	6	..........a	-327.68
	22	2.3	-2.80887E-001	-3.30840E-001	-3.05863E-001	3.31718E-008	-4.32969E-008	7.64687E-008	-3.31000E-001	3.55706E-004	6	..........a	-327.68
	23	2.4	-2.78887E-001	-3.28890E-001	-3.03889E-001	3.61325E-008	-4.50495E-008	8.11820E-008	-3.29000E-001	3.50373E-004	6	..........a	-327.68
	24	2.5	-2.76849E-001	-3.26889E-001	-3.01869E-001	3.92686E-008	-4.71948E-008	8.64633E-008	-3.27000E-001	3.65373E-004	6	..........a	-327.68
	25	2.6	-2.74844E-001	-3.24870E-001	-2.99857E-001	4.26347E-008	-4.95454E-008	9.21801E-008	-3.25000E-001	3.63873E-004	6	..........a	-327.68
	26	2.7	-2.72872E-001	-3.22867E-001	-2.97869E-001	4.59944E-008	-5.19014E-008	9.78958E-008	-3.23000E-001	3.56706E-004	6	..........a	-327.68
	27	2.8	-2.70878E-001	-3.20861E-001	-2.95869E-001	4.92745E-008	-5.45084E-008	1.03783E-007	-3.21000E-001	3.64373E-004	6	..........a	-327.68
	28	2.9	-2.68871E-001	-3.18906E-001	-2.93889E-001	5.26976E-008	-5.75027E-008	1.10200E-007	-3.19000E-001	3.63873E-004	6	..........a	-327.68
	29	3	-2.66789E-001	-3.16806E-001	-2.91797E-001	5.61881E-008	-6.05585E-008	1.16747E-007	-3.17000E-001	3.46373E-004	6	..........a	-327.68
	30	3.1	-2.64879E-001	-3.14892E-001	-2.89886E-001	5.94511E-008	-6.36795E-008	1.23131E-007	-3.15000E-001	3.52206E-004	6	..........a	-327.68
	31	3.2	-2.62884E-001	-3.12898E-001	-2.87891E-001	6.26109E-008	-6.70039E-008	1.29615E-007	-3.13000E-001	3.64206E-004	6	..........a	-327.68
	32	3.3	-2.60786E-001	-3.10891E-001	-2.85839E-001	6.56716E-008	-7.05321E-008	1.36204E-007	-3.11000E-001	3.61706E-004	6	..........a	-327.68
	33	3.4	-2.58824E-001	-3.08865E-001	-2.83844E-001	6.82073E-008	-7.40582E-008	1.42265E-007	-3.09000E-001	3.50706E-004	6	..........a	-327.68
	34	3.5	-2.56851E-001	-3.06871E-001	-2.81861E-001	7.07276E-008	-7.74913E-008	1.48219E-007	-3.07000E-001	3.64373E-004	6	..........a	-327.68
	35	3.6	-2.54905E-001	-3.04899E-001	-2.79902E-001	7.30505E-008	-8.11174E-008	1.54168E-007	-3.05000E-001	3.57039E-004	6	..........a	-327.68
	36	3.7	-2.52827E-001	-3.02897E-001	-2.77862E-001	7.46251E-008	-8.44875E-008	1.59113E-007	-3.03000E-001	3.57373E-004	6	..........a	-327.68
	37	3.8	-2.50842E-001	-3.00889E-001	-2.75865E-001	7.63363E-008	-8.76632E-008	1.64000E-007	-3.01000E-001	3.43539E-004	6	..........a	-327.68
	38	3.9	-2.48866E-001	-2.98862E-001	-2.73864E-001	7.73024E-008	-9.11467E-008	1.68449E-007	-2.99000E-001	3.47206E-004	6	..........a	-327.68
	39	4	-2.46869E-001	-2.96903E-001	-2.71886E-001	7.80022E-008	-9.39697E-008	1.71972E-007	-2.97000E-001	3.59206E-004	6	..........a	-327.68
	40	4.1	-2.44866E-001	-2.94895E-001	-2.69880E-001	7.84976E-008	-9.65217E-008	1.75019E-007	-2.95000E-001	3.55873E-004	6	..........a	-327.68
	41	4.2	-2.42798E-001	-2.92767E-001	-2.67782E-001	7.83142E-008	-9.87083E-008	1.77023E-007	-2.93000E-001	3.57373E-004	6	..........a	-327.68
	42	4.3	-2.40849E-001	-2.90830E-001	-2.65839E-001	7.78825E-008	-1.00733E-007	1.78615E-007	-2.91000E-001	3.57706E-004	6	..........a	-327.68
	43	4.4	-2.38892E-001	-2.88908E-001	-2.63900E-001	7.68800E-008	-1.02014E-007	1.78894E-007	-2.89000E-001	3.61373E-004	6	..........a	-327.68
	44	4.5	-2.36841E-001	-2.86896E-001	-2.61868E-001	7.57369E-008	-1.03129E-007	1.78866E-007	-2.87000E-001	3.64706E-004	6	..........a	-327.68
	45	4.6	-2.34806E-001	-2.84843E-001	-2.59825E-001	7.42504E-008	-1.03601E-007	1.77851E-007	-2.85000E-001	3.57539E-004	6	..........a	-327.68
	46	4.7	-2.32846E-001	-2.82834E-001	-2.57840E-001	7.26358E-008	-1.03654E-007	1.76290E-007	-2.83000E-001	3.64039E-004	6	..........a	-327.68
	47	4.8	-2.30864E-001	-2.80906E-001	-2.55885E-001	7.06546E-008	-1.03398E-007	1.74052E-007	-2.81000E-001	3.52706E-004	6	..........a	-327.68
	48	4.9	-2.28774E-001	-2.78894E-001	-2.53834E-001	6.87360E-008	-1.02301E-007	1.71037E-007	-2.79000E-001	3.62039E-004	6	..........a	-327.68
	49	5	-2.26823E-001	-2.76892E-001	-2.51857E-001	6.63244E-008	-1.00933E-007	1.67258E-007	-2.77000E-001	3.42706E-004	6	..........a	-327.68
	50	5.1	-2.24862E-001	-2.74864E-001	-2.49863E-001	6.39557E-008	-9.88487E-008	1.62804E-007	-2.75000E-001	3.44873E-004	6	..........a	-327.68
	51	5.2	-2.22864E-001	-2.72893E-001	-2.47878E-001	6.14947E-008	-9.66990E-008	1.58194E-007	-2.73000E-001	3.59873E-004	6	..........a	-327.68
	52	5.3	-2.20845E-001	-2.70882E-001	-2.45863E-001	5.90624E-008	-9.39090E-008	1.52971E-007	-2.71000E-001	3.44873E-004	6	..........a	-327.68
	53	5.4	-2.18843E-001	-2.68881E-001	-2.43862E-001	5.65884E-008	-9.08450E-008	1.47433E-007	-2.69000E-001	3.56706E-004	6	..........a	-327.68
	54	5.5	-2.16850E-001	-2.66828E-001	-2.41839E-001	5.41105E-008	-8.76029E-008	1.41713E-007	-2.67000E-001	3.55206E-004	6	..........a	-327.68
	55	5.6	-2.14903E-001	-2.64896E-001	-2.39899E-001	5.15961E-008	-8.39444E-008	1.35541E-007	-2.65000E-001	3.57373E-004	6	..........a	-327.68
	56	5.7	-2.12853E-001	-2.62886E-001	-2.37870E-001	4.92458E-008	-8.00206E-008	1.29266E-007	-2.63000E-001	3.40206E-004	6	..........a	-327.68
	57	5.8	-2.10849E-001	-2.60849E-001	-2.35849E-001	4.69646E-008	-7.62595E-008	1.23224E-007	-2.61000E-001	3.58873E-004	6	..........a	-327.68
	58	5.9	-2.08861E-001	-2.58852E-001	-2.33856E-001	4.47256E-008	-7.22893E-008	1.17015E-007	-2.59000E-001	3.50873E-004	6	..........a	-327.68
	59	6	-2.06866E-001	-2.56878E-001	-2.31872E-001	4.23780E-008	-6.83625E-008	1.10740E-007	-2.57000E-001	3.60539E-004	6	..........a	-327.68
	60	6.1	-2.04807E-001	-2.54894E-001	-2.29850E-001	4.04404E-008	-6.42706E-008	1.04711E-007	-2.55000E-001	3.66206E-004	6	..........a	-327.68
	61	6.2	-2.02840E-001	-2.52868E-001	-2.27854E-001	3.84068E-008	-6.04324E-008	9.88392E-008	-2.53000E-001	3.64539E-004	6	..........a	-327.68
	62	6.3	-2.00866E-001	-2.50862E-001	-2.25864E-001	3.67066E-008	-5.66910E-008	9.33976E-008	-2.51000E-001	3.59539E-004	6	..........a	-327.68
	63	6.4	-1.98874E-001	-2.48877E-001	-2.23876E-001	3.49650E-008	-5.30608E-008	8.80259E-008	-2.49000E-001	3.65873E-004	6	..........a	-327.68
	64	6.5	-1.96865E-001	-2.46882E-001	-2.21874E-001	3.32541E-008	-4.95077E-008	8.27619E-008	-2.47000E-001	3.66873E-004	6	..........a	-327.68
	65	6.6	-1.94852E-001	-2.44880E-001	-2.19866E-001	3.17900E-008	-4.63607E-008	7.81506E-008	-2.45000E-001	3.53873E-004	6	..........a	-327.68
	66	6.7	-1.92878E-001	-2.42812E-001	-2.17845E-001	3.07205E-008	-4.31356E-008	7.38561E-008	-2.43000E-001	3.45873E-004	6	..........a	-327.68
	67	6.8	-1.90918E-001	-2.40862E-001	-2.15890E-001	2.93063E-008	-4.00915E-008	6.93978E-008	-2.41000E-001	3.59206E-004	6	..........a	-327.68
	68	6.9	-1.88753E-001	-2.38910E-001	-2.13832E-001	2.81258E-008	-3.75339E-008	6.56597E-008	-2.39000E-001	3.60539E-004	6	..........a	-327.68
	69	7	-1.86839E-001	-2.36842E-001	-2.11840E-001	2.70460E-008	-3.46452E-008	6.16912E-008	-2.37000E-001	3.45706E-004	6	..........a	-327.68
	70	7.1	-1.84873E-001	-2.34824E-001	-2.09848E-001	2.59852E-008	-3.22912E-008	5.82764E-008	-2.35000E-001	3.59873E-004	6	..........a	-327.68
	71	7.2	-1.82862E-001	-2.32859E-001	-2.07860E-001	2.51274E-008	-3.03319E-008	5.54594E-008	-2.33000E-001	3.40539E-004	6	..........a	-327.68
	72	7.3	-1.80795E-001	-2.30867E-001	-2.05831E-001	2.43243E-008	-2.84284E-008	5.27527E-008	-2.31000E-001	3.53373E-004	6	..........a	-327.68
	73	7.4	-1.78823E-001	-2.28808E-001	-2.03816E-001	2.36896E-008	-2.65535E-008	5.02431E-008	-2.29000E-001	3.46206E-004	6	..........a	-327.68
	74	7.5	-1.76841E-001	-2.26837E-001	-2.01839E-001	2.28412E-008	-2.48506E-008	4.76917E-008	-2.27000E-001	3.53039E-004	6	..........a	-327.68
	75	7.6	-1.74863E-001	-2.24864E-001	-1.99864E-001	2.26461E-008	-2.34474E-008	4.60935E-008	-2.25000E-001	3.49539E-004	6	..........a	-327.68
	76	7.7	-1.72837E-001	-2.22866E-001	-1.97852E-001	2.18457E-008	-2.21186E-008	4.39643E-008	-2.23000E-001	3.53206E-004	6	..........a	-327.68
	77	7.8	-1.70819E-001	-2.20859E-001	-1.95839E-001	2.14880E-008	-2.09227E-008	4.24107E-008	-2.21000E-001	3.53206E-004	6	..........a	-327.68
	78	7.9	-1.68858E-001	-2.18862E-001	-1.93860E-001	2.11803E-008	-1.98056E-008	4.09859E-008	-2.19000E-001	3.48706E-004	6	..........a	-327.68
	79	8	-1.66860E-001	-2.16869E-001	-1.91864E-001	2.08246E-008	-1.88505E-008	3.96750E-008	-2.17000E-001	3.48873E-004	6	..........a	-327.68
	80	8.1	-1.64701E-001	-2.14897E-001	-1.89799E-001	2.04659E-008	-1.79034E-008	3.83692E-008	-2.15000E-001	3.54206E-004	6	..........a	-327.68
	81	8.2	-1.62817E-001	-2.12809E-001	-1.87813E-001	2.02475E-008	-1.71136E-008	3.73611E-008	-2.13000E-001	3.47539E-004	6	..........a	-327.68
	82	8.3	-1.60882E-001	-2.10850E-001	-1.85866E-001	1.99375E-008	-1.63462E-008	3.62836E-008	-2.11000E-001	3.50206E-004	6	..........a	-327.68
	83	8.4	-1.58873E-001	-2.08863E-001	-1.83868E-001	1.97138E-008	-1.55741E-008	3.52878E-008	-2.09000E-001	3.58039E-004	6	..........a	-327.68
	84	8.5	-1.56801E-001	-2.06869E-001	-1.81835E-001	1.95417E-008	-1.48943E-008	3.44360E-008	-2.07000E-001	3.60039E-004	6	..........a	-327.68
	85	8.6	-1.54823E-001	-2.04793E-001	-1.79808E-001	1.95674E-008	-1.46933E-008	3.42607E-008	-2.05000E-001	3.46373E-004	6	..........a	-327.68
	86	8.7	-1.52861E-001	-2.02840E-001	-1.77851E-001	1.93927E-008	-1.40222E-008	3.34149E-008	-2.03000E-001	3.42039E-004	6	..........a	-327.68
	87	8.8	-1.50874E-001	-2.00874E-001	-1.75874E-001	1.92084E-008	-1.34538E-008	3.26622E-008	-2.01000E-001	3.57873E-004	6	..........a	-327.68
	88	8.9	-1.48843E-001	-1.98871E-001	-1.73857E-001	1.92384E-008	-1.33434E-008	3.25818E-008	-1.99000E-001	3.54706E-004	6	..........a	-327.68
	89	9	-1.46846E-001	-1.96828E-001	-1.71837E-001	1.91560E-008	-1.28561E-008	3.20121E-008	-1.97000E-001	3.41373E-004	6	..........a	-327.68
	90	9.1	-1.44867E-001	-1.94847E-001	-1.69857E-001	1.92304E-008	-1.24033E-008	3.16337E-008	-1.95000E-001	3.52039E-004	6	..........a	-327.68
	91	9.2	-1.42867E-001	-1.92867E-001	-1.67867E-001	1.93624E-008	-1.21200E-008	3.14823E-008	-1.93000E-001	3.46206E-004	6	..........a	-327.68
	92	9.3	-1.40855E-001	-1.90922E-001	-1.65888E-001	1.94571E-008	-1.16492E-008	3.11063E-008	-1.91000E-001	3.60039E-004	6	..........a	-327.68
	93	9.4	-1.38814E-001	-1.88699E-001	-1.63757E-001	1.91974E-008	-1.15959E-008	3.07933E-008	-1.89000E-001	3.38706E-004	6	..........a	-327.68
	94	9.5	-1.36857E-001	-1.86840E-001	-1.61849E-001	1.91417E-008	-1.12722E-008	3.04139E-008	-1.87000E-001	3.51039E-004	6	..........a	-327.68
	95	9.6	-1.34849E-001	-1.84863E-001	-1.59856E-001	1.93160E-008	-1.10205E-008	3.03365E-008	-1.85000E-001	3.50539E-004	6	..........a	-327.68
	96	9.7	-1.32789E-001	-1.82869E-001	-1.57829E-001	1.93951E-008	-1.07798E-008	3.01748E-008	-1.83000E-001	3.53373E-004	6	..........a	-327.68
	97	9.8	-1.30810E-001	-1.80758E-001	-1.55784E-001	1.92144E-008	-1.05938E-008	2.98081E-008	-1.81000E-001	3.53039E-004	6	..........a	-327.68
	98	9.9	-1.28844E-001	-1.78834E-001	-1.53839E-001	1.94784E-008	-1.04994E-008	2.99778E-008	-1.79000E-001	3.58039E-004	6	..........a	-327.68
	99	10	-1.26881E-001	-1.76854E-001	-1.51867E-001	1.94234E-008	-1.04441E-008	2.98675E-008	-1.77000E-001	3.51373E-004	6	..........a	-327.68
	100	10.1	-1.24817E-001	-1.74875E-001	-1.49846E-001	1.95944E-008	-1.00524E-008	2.96468E-008	-1.75000E-001	3.44873E-004	6	..........a	-327.68
