EXPLAIN
TAG	SQUARE_WAVE
TITLE	LABEL	Square Wave Voltammetry	Test Identifier
DATE	LABEL	8/10/2020	Date
TIME	LABEL	16:36:22	Time
NOTES	NOTES	1	Notes...
	 STD2 1 fg/mL 08102
PSTAT	PSTAT	REF600-24079	Potentiostat
VINIT	QUANT	-3.50000E-001	Initial E (V)
VFINAL	QUANT	-1.50000E-001	Final E (V)
STEPSIZE	QUANT	2.00000E+000	Step Size (mV)
TIMERRES	QUANT	3.33340E-005	&Timer Resolution
FREQUENCY	QUANT	1.00000E+001	Frequency (Hz)
PULSESIZE	QUANT	2.50000E+001	Pulse Size E (mV)
PULSEON	QUANT	1.00000E-001	Pulse &Time (s)
NOISEREJECT	TOGGLE	F	Noise Rejection
AREA	QUANT	2.00000E-002	Sample Area (cm^2)
IMODE	SELECTOR	1	I/E Range Mode
IRANGE	QUANT	1.00000E-003	Max Current (mA)
EQDELAY	IQUANT	10	Equil. Time (s)
IRCOMP	SELECTOR	0	IRComp
PFCOR	QUANT	5.00000E+001	PF Corr. (ohm)
CYCLES	IQUANT	101	C&ycles (#)
ELECTRODETYPE	SELECTOR	0	Electrode Type
STRIPPING	TOGGLE	F	Used for Stripping
POLARITY	TOGGLE	F	Signal Polarity
LINEFREQ	IQUANT	60	Line Frequency (Hz)
INTPERIOD	QUANT	3.3334E-005	Integration Period (s)
SEQUENCER	TOGGLE	TRUE	Run as Sequence
PSTATMODEL	IQUANT	4	Pstat Model
PSTATSECTION	LABEL	REF600-24079	Pstat Section
PSTATSERIALNO	LABEL	24079	Pstat Serial Number
CTRLMODE	IQUANT	1	Control Mode
ELECTROMETER	IQUANT	0	RE=0 or CS=1
IESTAB	IQUANT	2	I/E Stability
CASPEED	IQUANT	6	Control Amp Speed
CONVENTION	IQUANT	1	Current Convention
ICHRANGE	IQUANT	2	Ich Range
ICHRANGEMODE	TOGGLE	F	Ich Auto Range
ICHOFFSETENABLE	TOGGLE	F	Ich Offset Enable
ICHOFFSET	QUANT	0	Ich Offset (V)
ICHFILTER	IQUANT	2	Ich Filter
VCHRANGE	IQUANT	2	Vch Range
VCHRANGEMODE	TOGGLE	F	Vch Auto Range
VCHOFFSETENABLE	TOGGLE	F	Vch Offset Enable
VCHOFFSET	QUANT	0	Vch Offset (V)
VCHFILTER	IQUANT	2	Vch Filter
ACHRANGE	IQUANT	2	Ach Range
ACHOFFSETENABLE	TOGGLE	F	Ach Offset Enable
ACHOFFSET	QUANT	0	Ach Offset (V)
ACHFILTER	IQUANT	1	Ach Filter
IERANGELOWERLIMIT	IQUANT	1	I/E Range Lower Limit
IERANGEMODE	TOGGLE	F	I/E AutoRange
IERANGE	IQUANT	6	I/E Range
POSFEEDENABLE	TOGGLE	F	Positive Feedback IR Comp
POSFEEDRESISTANCE	QUANT	0	Positive Feedback Resistance (ohm)
ACHSELECT	IQUANT	0	Ach Select
SENSECABLEID	IQUANT	13	Sense Cable ID
PWRCABLEID	IQUANT	13	Power Cable ID
DCCALDATE	LABEL	6/30/2020	DC Calibration Date
ACCALDATE	LABEL	6/30/2020	AC Calibration Date
THERMOSELECT	IQUANT	1	Thermo Select
FRAMEWORKVERSION	LABEL	7.8.2	Framework Version
INSTRUMENTVERSION	LABEL	4.40	Instrument Version
CURVE	TABLE	101
	Pt	T	Vfwd	Vrev	Vstep	Ifwd	Irev	Idif	Sig	Ach	IERange	Over	Temp
	#	s	V	V	V	A	A	A	V	V	#	bits	deg C
	0	0.1	-3.24843E-001	-3.74890E-001	-3.49866E-001	-1.40165E-007	-2.36201E-007	9.60362E-008	-3.75000E-001	3.88873E-004	6	..........a	-327.68
	1	0.2	-3.22841E-001	-3.72871E-001	-3.47856E-001	-1.25751E-007	-2.27868E-007	1.02117E-007	-3.73000E-001	4.04873E-004	6	..........a	-327.68
	2	0.3	-3.20859E-001	-3.70769E-001	-3.45814E-001	-1.21494E-007	-2.22526E-007	1.01032E-007	-3.71000E-001	4.08373E-004	6	..........a	-327.68
	3	0.4	-3.18830E-001	-3.68911E-001	-3.43870E-001	-1.18120E-007	-2.17633E-007	9.95137E-008	-3.69000E-001	4.17206E-004	6	..........a	-327.68
	4	0.5	-3.16739E-001	-3.66860E-001	-3.41799E-001	-1.14998E-007	-2.13266E-007	9.82682E-008	-3.67000E-001	4.17206E-004	6	..........a	-327.68
	5	0.6	-3.14811E-001	-3.64818E-001	-3.39814E-001	-1.12095E-007	-2.09201E-007	9.71064E-008	-3.65000E-001	4.11706E-004	6	..........a	-327.68
	6	0.7	-3.12852E-001	-3.62787E-001	-3.37820E-001	-1.09327E-007	-2.05124E-007	9.57969E-008	-3.63000E-001	4.08873E-004	6	..........a	-327.68
	7	0.8	-3.10836E-001	-3.60849E-001	-3.35842E-001	-1.06966E-007	-2.01515E-007	9.45490E-008	-3.61000E-001	4.06039E-004	6	..........a	-327.68
	8	0.9	-3.08809E-001	-3.58844E-001	-3.33827E-001	-1.04146E-007	-1.97826E-007	9.36799E-008	-3.59000E-001	3.98539E-004	6	..........a	-327.68
	9	1	-3.06808E-001	-3.56774E-001	-3.31791E-001	-1.01549E-007	-1.94135E-007	9.25858E-008	-3.57000E-001	3.90206E-004	6	..........a	-327.68
	10	1.1	-3.04872E-001	-3.54809E-001	-3.29840E-001	-9.90924E-008	-1.90491E-007	9.13990E-008	-3.55000E-001	3.90706E-004	6	..........a	-327.68
	11	1.2	-3.02882E-001	-3.52875E-001	-3.27878E-001	-9.66754E-008	-1.86933E-007	9.02575E-008	-3.53000E-001	3.97373E-004	6	..........a	-327.68
	12	1.3	-3.00875E-001	-3.50867E-001	-3.25871E-001	-9.42037E-008	-1.83600E-007	8.93960E-008	-3.51000E-001	4.00873E-004	6	..........a	-327.68
	13	1.4	-2.98835E-001	-3.48877E-001	-3.23856E-001	-9.18084E-008	-1.80109E-007	8.83002E-008	-3.49000E-001	3.94539E-004	6	..........a	-327.68
	14	1.5	-2.96877E-001	-3.46854E-001	-3.21865E-001	-8.96421E-008	-1.77086E-007	8.74441E-008	-3.47000E-001	3.91706E-004	6	..........a	-327.68
	15	1.6	-2.94890E-001	-3.44951E-001	-3.19921E-001	-8.73775E-008	-1.74108E-007	8.67304E-008	-3.45000E-001	3.94873E-004	6	..........a	-327.68
	16	1.7	-2.92742E-001	-3.42838E-001	-3.17790E-001	-8.51016E-008	-1.70742E-007	8.56409E-008	-3.43000E-001	3.83373E-004	6	..........a	-327.68
	17	1.8	-2.90787E-001	-3.40791E-001	-3.15789E-001	-8.27423E-008	-1.67763E-007	8.50205E-008	-3.41000E-001	3.97039E-004	6	..........a	-327.68
	18	1.9	-2.88891E-001	-3.38787E-001	-3.13839E-001	-8.06620E-008	-1.64957E-007	8.42954E-008	-3.39000E-001	4.06373E-004	6	..........a	-327.68
	19	2	-2.86839E-001	-3.36856E-001	-3.11847E-001	-7.83071E-008	-1.62250E-007	8.39430E-008	-3.37000E-001	4.04873E-004	6	..........a	-327.68
	20	2.1	-2.84820E-001	-3.34829E-001	-3.09825E-001	-7.60314E-008	-1.59272E-007	8.32402E-008	-3.35000E-001	4.07873E-004	6	..........a	-327.68
	21	2.2	-2.82781E-001	-3.32826E-001	-3.07803E-001	-7.40435E-008	-1.56532E-007	8.24885E-008	-3.33000E-001	4.18706E-004	6	..........a	-327.68
	22	2.3	-2.80900E-001	-3.30801E-001	-3.05851E-001	-7.19899E-008	-1.53934E-007	8.19444E-008	-3.31000E-001	4.01039E-004	6	..........a	-327.68
	23	2.4	-2.78839E-001	-3.28876E-001	-3.03857E-001	-6.98570E-008	-1.51351E-007	8.14944E-008	-3.29000E-001	3.91706E-004	6	..........a	-327.68
	24	2.5	-2.76836E-001	-3.26868E-001	-3.01852E-001	-6.78794E-008	-1.48915E-007	8.10360E-008	-3.27000E-001	4.09706E-004	6	..........a	-327.68
	25	2.6	-2.74827E-001	-3.24882E-001	-2.99855E-001	-6.58675E-008	-1.46409E-007	8.05412E-008	-3.25000E-001	3.99539E-004	6	..........a	-327.68
	26	2.7	-2.72853E-001	-3.22858E-001	-2.97856E-001	-6.39882E-008	-1.43966E-007	7.99782E-008	-3.23000E-001	4.05706E-004	6	..........a	-327.68
	27	2.8	-2.70847E-001	-3.20877E-001	-2.95862E-001	-6.20647E-008	-1.41570E-007	7.95051E-008	-3.21000E-001	3.98039E-004	6	..........a	-327.68
	28	2.9	-2.68848E-001	-3.18854E-001	-2.93851E-001	-5.98104E-008	-1.39381E-007	7.95705E-008	-3.19000E-001	3.97039E-004	6	..........a	-327.68
	29	3	-2.66764E-001	-3.16758E-001	-2.91761E-001	-5.83292E-008	-1.37193E-007	7.88640E-008	-3.17000E-001	3.85373E-004	6	..........a	-327.68
	30	3.1	-2.64866E-001	-3.14826E-001	-2.89846E-001	-5.62099E-008	-1.34880E-007	7.86700E-008	-3.15000E-001	4.06539E-004	6	..........a	-327.68
	31	3.2	-2.62846E-001	-3.12859E-001	-2.87852E-001	-5.42830E-008	-1.32638E-007	7.83546E-008	-3.13000E-001	3.97539E-004	6	..........a	-327.68
	32	3.3	-2.60792E-001	-3.10835E-001	-2.85813E-001	-5.25778E-008	-1.30676E-007	7.80983E-008	-3.11000E-001	3.84039E-004	6	..........a	-327.68
	33	3.4	-2.58783E-001	-3.08817E-001	-2.83800E-001	-5.07702E-008	-1.28694E-007	7.79239E-008	-3.09000E-001	4.04373E-004	6	..........a	-327.68
	34	3.5	-2.56846E-001	-3.06811E-001	-2.81828E-001	-4.90497E-008	-1.26958E-007	7.79079E-008	-3.07000E-001	4.09373E-004	6	..........a	-327.68
	35	3.6	-2.54852E-001	-3.04890E-001	-2.79871E-001	-4.73124E-008	-1.24937E-007	7.76242E-008	-3.05000E-001	4.03039E-004	6	..........a	-327.68
	36	3.7	-2.52860E-001	-3.02876E-001	-2.77868E-001	-4.56806E-008	-1.22851E-007	7.71708E-008	-3.03000E-001	3.88873E-004	6	..........a	-327.68
	37	3.8	-2.50818E-001	-3.00886E-001	-2.75852E-001	-4.40624E-008	-1.21028E-007	7.69661E-008	-3.01000E-001	3.92539E-004	6	..........a	-327.68
	38	3.9	-2.48863E-001	-2.98848E-001	-2.73856E-001	-4.25922E-008	-1.19549E-007	7.69565E-008	-2.99000E-001	3.94873E-004	6	..........a	-327.68
	39	4	-2.46868E-001	-2.96886E-001	-2.71877E-001	-4.11590E-008	-1.17602E-007	7.64431E-008	-2.97000E-001	3.94206E-004	6	..........a	-327.68
	40	4.1	-2.44871E-001	-2.94870E-001	-2.69870E-001	-3.96025E-008	-1.15776E-007	7.61737E-008	-2.95000E-001	3.99539E-004	6	..........a	-327.68
	41	4.2	-2.42764E-001	-2.92691E-001	-2.67727E-001	-3.81453E-008	-1.14146E-007	7.60003E-008	-2.93000E-001	4.04706E-004	6	..........a	-327.68
	42	4.3	-2.40877E-001	-2.90778E-001	-2.65827E-001	-3.67624E-008	-1.12347E-007	7.55849E-008	-2.91000E-001	3.94373E-004	6	..........a	-327.68
	43	4.4	-2.38869E-001	-2.88898E-001	-2.63883E-001	-3.52782E-008	-1.10761E-007	7.54826E-008	-2.89000E-001	3.96539E-004	6	..........a	-327.68
	44	4.5	-2.36812E-001	-2.86845E-001	-2.61828E-001	-3.41354E-008	-1.08773E-007	7.46372E-008	-2.87000E-001	3.77373E-004	6	..........a	-327.68
	45	4.6	-2.34799E-001	-2.84832E-001	-2.59816E-001	-3.25579E-008	-1.07444E-007	7.48865E-008	-2.85000E-001	3.98706E-004	6	..........a	-327.68
	46	4.7	-2.32850E-001	-2.82801E-001	-2.57825E-001	-3.15448E-008	-1.05675E-007	7.41304E-008	-2.83000E-001	3.90873E-004	6	..........a	-327.68
	47	4.8	-2.30837E-001	-2.80909E-001	-2.55873E-001	-3.05446E-008	-1.03939E-007	7.33943E-008	-2.81000E-001	3.95206E-004	6	..........a	-327.68
	48	4.9	-2.28789E-001	-2.78854E-001	-2.53822E-001	-2.93068E-008	-1.02251E-007	7.29446E-008	-2.79000E-001	3.90206E-004	6	..........a	-327.68
	49	5	-2.26801E-001	-2.76893E-001	-2.51847E-001	-2.83250E-008	-1.01003E-007	7.26779E-008	-2.77000E-001	4.00206E-004	6	..........a	-327.68
	50	5.1	-2.24859E-001	-2.74845E-001	-2.49852E-001	-2.72185E-008	-9.93721E-008	7.21535E-008	-2.75000E-001	3.88039E-004	6	..........a	-327.68
	51	5.2	-2.22848E-001	-2.72883E-001	-2.47866E-001	-2.59961E-008	-9.76242E-008	7.16281E-008	-2.73000E-001	3.97539E-004	6	..........a	-327.68
	52	5.3	-2.20870E-001	-2.70898E-001	-2.45884E-001	-2.50156E-008	-9.61073E-008	7.10917E-008	-2.71000E-001	3.90539E-004	6	..........a	-327.68
	53	5.4	-2.18854E-001	-2.68889E-001	-2.43872E-001	-2.40675E-008	-9.42731E-008	7.02056E-008	-2.69000E-001	3.97206E-004	6	..........a	-327.68
	54	5.5	-2.16916E-001	-2.66775E-001	-2.41845E-001	-2.27906E-008	-9.28976E-008	7.01069E-008	-2.67000E-001	3.95039E-004	6	..........a	-327.68
	55	5.6	-2.14834E-001	-2.64897E-001	-2.39866E-001	-2.19735E-008	-9.12974E-008	6.93238E-008	-2.65000E-001	3.91539E-004	6	..........a	-327.68
	56	5.7	-2.12832E-001	-2.62899E-001	-2.37865E-001	-2.10068E-008	-8.94998E-008	6.84931E-008	-2.63000E-001	3.94873E-004	6	..........a	-327.68
	57	5.8	-2.10796E-001	-2.60796E-001	-2.35796E-001	-2.02543E-008	-8.80623E-008	6.78080E-008	-2.61000E-001	4.02706E-004	6	..........a	-327.68
	58	5.9	-2.08846E-001	-2.58810E-001	-2.33828E-001	-1.94182E-008	-8.65134E-008	6.70952E-008	-2.59000E-001	4.11873E-004	6	..........a	-327.68
	59	6	-2.06850E-001	-2.56877E-001	-2.31863E-001	-1.85078E-008	-8.50329E-008	6.65251E-008	-2.57000E-001	3.88373E-004	6	..........a	-327.68
	60	6.1	-2.04793E-001	-2.54896E-001	-2.29845E-001	-1.73733E-008	-8.33403E-008	6.59671E-008	-2.55000E-001	4.19373E-004	6	..........a	-327.68
	61	6.2	-2.02802E-001	-2.52878E-001	-2.27840E-001	-1.65809E-008	-8.19718E-008	6.53910E-008	-2.53000E-001	4.09039E-004	6	..........a	-327.68
	62	6.3	-2.00879E-001	-2.50848E-001	-2.25864E-001	-1.61038E-008	-8.05427E-008	6.44389E-008	-2.51000E-001	4.09539E-004	6	..........a	-327.68
	63	6.4	-1.98880E-001	-2.48886E-001	-2.23883E-001	-1.48360E-008	-7.89028E-008	6.40668E-008	-2.49000E-001	4.02039E-004	6	..........a	-327.68
	64	6.5	-1.96874E-001	-2.46866E-001	-2.21870E-001	-1.41189E-008	-7.73043E-008	6.31854E-008	-2.47000E-001	4.04539E-004	6	..........a	-327.68
	65	6.6	-1.94851E-001	-2.44890E-001	-2.19870E-001	-1.33648E-008	-7.60971E-008	6.27323E-008	-2.45000E-001	4.00873E-004	6	..........a	-327.68
	66	6.7	-1.92869E-001	-2.42772E-001	-2.17820E-001	-1.24380E-008	-7.46172E-008	6.21792E-008	-2.43000E-001	3.93206E-004	6	..........a	-327.68
	67	6.8	-1.90841E-001	-2.40927E-001	-2.15884E-001	-1.17736E-008	-7.32511E-008	6.14775E-008	-2.41000E-001	3.95706E-004	6	..........a	-327.68
	68	6.9	-1.88749E-001	-2.38857E-001	-2.13803E-001	-1.07281E-008	-7.18929E-008	6.11648E-008	-2.39000E-001	4.03706E-004	6	..........a	-327.68
	69	7	-1.86793E-001	-2.36870E-001	-2.11832E-001	-1.00234E-008	-7.05641E-008	6.05407E-008	-2.37000E-001	4.04539E-004	6	..........a	-327.68
	70	7.1	-1.84872E-001	-2.34788E-001	-2.09830E-001	-9.33194E-009	-6.93089E-008	5.99770E-008	-2.35000E-001	4.00706E-004	6	..........a	-327.68
	71	7.2	-1.82843E-001	-2.32865E-001	-2.07854E-001	-8.52984E-009	-6.80664E-008	5.95366E-008	-2.33000E-001	4.07039E-004	6	..........a	-327.68
	72	7.3	-1.80797E-001	-2.30838E-001	-2.05817E-001	-7.83608E-009	-6.69706E-008	5.91345E-008	-2.31000E-001	4.05706E-004	6	..........a	-327.68
	73	7.4	-1.78791E-001	-2.28792E-001	-2.03792E-001	-6.99731E-009	-6.58465E-008	5.88492E-008	-2.29000E-001	4.14373E-004	6	..........a	-327.68
	74	7.5	-1.76841E-001	-2.26804E-001	-2.01822E-001	-6.21254E-009	-6.45776E-008	5.83651E-008	-2.27000E-001	4.20706E-004	6	..........a	-327.68
	75	7.6	-1.74861E-001	-2.24868E-001	-1.99865E-001	-5.51445E-009	-6.34302E-008	5.79157E-008	-2.25000E-001	4.16873E-004	6	..........a	-327.68
	76	7.7	-1.72861E-001	-2.22849E-001	-1.97855E-001	-4.76136E-009	-6.22183E-008	5.74570E-008	-2.23000E-001	4.08873E-004	6	..........a	-327.68
	77	7.8	-1.70822E-001	-2.20859E-001	-1.95840E-001	-4.20262E-009	-6.10018E-008	5.67992E-008	-2.21000E-001	4.04373E-004	6	..........a	-327.68
	78	7.9	-1.68868E-001	-2.18842E-001	-1.93855E-001	-3.28984E-009	-6.01404E-008	5.68506E-008	-2.19000E-001	4.03706E-004	6	..........a	-327.68
	79	8	-1.66877E-001	-2.16926E-001	-1.91901E-001	-2.70176E-009	-5.90553E-008	5.63535E-008	-2.17000E-001	3.95373E-004	6	..........a	-327.68
	80	8.1	-1.64722E-001	-2.14827E-001	-1.89774E-001	-2.10635E-009	-5.78594E-008	5.57531E-008	-2.15000E-001	4.06539E-004	6	..........a	-327.68
	81	8.2	-1.62778E-001	-2.12854E-001	-1.87816E-001	-1.35959E-009	-5.67286E-008	5.53690E-008	-2.13000E-001	4.09706E-004	6	..........a	-327.68
	82	8.3	-1.60893E-001	-2.10799E-001	-1.85846E-001	-6.16162E-010	-5.60035E-008	5.53874E-008	-2.11000E-001	4.06706E-004	6	..........a	-327.68
	83	8.4	-1.58835E-001	-2.08841E-001	-1.83838E-001	3.62546E-011	-5.49951E-008	5.50313E-008	-2.09000E-001	4.04873E-004	6	..........a	-327.68
	84	8.5	-1.56805E-001	-2.06833E-001	-1.81819E-001	5.38319E-010	-5.39553E-008	5.44936E-008	-2.07000E-001	4.00206E-004	6	..........a	-327.68
	85	8.6	-1.54791E-001	-2.04830E-001	-1.79810E-001	1.35476E-009	-5.29965E-008	5.43513E-008	-2.05000E-001	4.01373E-004	6	..........a	-327.68
	86	8.7	-1.52889E-001	-2.02806E-001	-1.77847E-001	1.88716E-009	-5.19887E-008	5.38759E-008	-2.03000E-001	3.89373E-004	6	..........a	-327.68
	87	8.8	-1.50871E-001	-2.00891E-001	-1.75881E-001	2.44990E-009	-5.11686E-008	5.36185E-008	-2.01000E-001	4.03039E-004	6	..........a	-327.68
	88	8.9	-1.48864E-001	-1.98869E-001	-1.73866E-001	2.74860E-009	-5.06342E-008	5.33828E-008	-1.99000E-001	3.68206E-004	6	..........a	-327.68
	89	9	-1.46831E-001	-1.96889E-001	-1.71860E-001	3.31100E-009	-4.96744E-008	5.29854E-008	-1.97000E-001	3.99373E-004	6	..........a	-327.68
	90	9.1	-1.44877E-001	-1.94854E-001	-1.69866E-001	3.76706E-009	-4.86623E-008	5.24293E-008	-1.95000E-001	3.77373E-004	6	..........a	-327.68
	91	9.2	-1.42905E-001	-1.92885E-001	-1.67895E-001	4.52149E-009	-4.77675E-008	5.22890E-008	-1.93000E-001	3.78539E-004	6	..........a	-327.68
	92	9.3	-1.40892E-001	-1.90837E-001	-1.65865E-001	5.03422E-009	-4.71024E-008	5.21366E-008	-1.91000E-001	3.83373E-004	6	..........a	-327.68
	93	9.4	-1.38756E-001	-1.88811E-001	-1.63784E-001	5.46661E-009	-4.62630E-008	5.17296E-008	-1.89000E-001	3.92373E-004	6	..........a	-327.68
	94	9.5	-1.36878E-001	-1.86791E-001	-1.61834E-001	6.16403E-009	-4.54602E-008	5.16242E-008	-1.87000E-001	3.82539E-004	6	..........a	-327.68
	95	9.6	-1.34895E-001	-1.84884E-001	-1.59889E-001	6.63709E-009	-4.49268E-008	5.15639E-008	-1.85000E-001	3.87706E-004	6	..........a	-327.68
	96	9.7	-1.32762E-001	-1.82832E-001	-1.57797E-001	7.00547E-009	-4.40660E-008	5.10715E-008	-1.83000E-001	3.71706E-004	6	..........a	-327.68
	97	9.8	-1.30777E-001	-1.80831E-001	-1.55804E-001	7.42453E-009	-4.32959E-008	5.07205E-008	-1.81000E-001	3.84539E-004	6	..........a	-327.68
	98	9.9	-1.28831E-001	-1.78806E-001	-1.53819E-001	8.09628E-009	-4.26422E-008	5.07385E-008	-1.79000E-001	3.75039E-004	6	..........a	-327.68
	99	10	-1.26901E-001	-1.76879E-001	-1.51890E-001	8.37332E-009	-4.19131E-008	5.02864E-008	-1.77000E-001	3.80706E-004	6	..........a	-327.68
	100	10.1	-1.24811E-001	-1.74875E-001	-1.49843E-001	9.13475E-009	-4.10666E-008	5.02014E-008	-1.75000E-001	3.86539E-004	6	..........a	-327.68
