EXPLAIN
TAG	SQUARE_WAVE
TITLE	LABEL	Square Wave Voltammetry	Test Identifier
DATE	LABEL	8/10/2020	Date
TIME	LABEL	15:23:21	Time
NOTES	NOTES	1	Notes...
	 STD3 0.1fgml  08102
PSTAT	PSTAT	REF600-24079	Potentiostat
VINIT	QUANT	-3.50000E-001	Initial E (V)
VFINAL	QUANT	-1.50000E-001	Final E (V)
STEPSIZE	QUANT	2.00000E+000	Step Size (mV)
TIMERRES	QUANT	3.33340E-005	&Timer Resolution
FREQUENCY	QUANT	1.00000E+001	Frequency (Hz)
PULSESIZE	QUANT	2.50000E+001	Pulse Size E (mV)
PULSEON	QUANT	1.00000E-001	Pulse &Time (s)
NOISEREJECT	TOGGLE	F	Noise Rejection
AREA	QUANT	2.00000E-002	Sample Area (cm^2)
IMODE	SELECTOR	1	I/E Range Mode
IRANGE	QUANT	1.00000E-003	Max Current (mA)
EQDELAY	IQUANT	10	Equil. Time (s)
IRCOMP	SELECTOR	0	IRComp
PFCOR	QUANT	5.00000E+001	PF Corr. (ohm)
CYCLES	IQUANT	101	C&ycles (#)
ELECTRODETYPE	SELECTOR	0	Electrode Type
STRIPPING	TOGGLE	F	Used for Stripping
POLARITY	TOGGLE	F	Signal Polarity
LINEFREQ	IQUANT	60	Line Frequency (Hz)
INTPERIOD	QUANT	3.3334E-005	Integration Period (s)
SEQUENCER	TOGGLE	TRUE	Run as Sequence
PSTATMODEL	IQUANT	4	Pstat Model
PSTATSECTION	LABEL	REF600-24079	Pstat Section
PSTATSERIALNO	LABEL	24079	Pstat Serial Number
CTRLMODE	IQUANT	1	Control Mode
ELECTROMETER	IQUANT	0	RE=0 or CS=1
IESTAB	IQUANT	2	I/E Stability
CASPEED	IQUANT	6	Control Amp Speed
CONVENTION	IQUANT	1	Current Convention
ICHRANGE	IQUANT	2	Ich Range
ICHRANGEMODE	TOGGLE	F	Ich Auto Range
ICHOFFSETENABLE	TOGGLE	F	Ich Offset Enable
ICHOFFSET	QUANT	0	Ich Offset (V)
ICHFILTER	IQUANT	2	Ich Filter
VCHRANGE	IQUANT	2	Vch Range
VCHRANGEMODE	TOGGLE	F	Vch Auto Range
VCHOFFSETENABLE	TOGGLE	F	Vch Offset Enable
VCHOFFSET	QUANT	0	Vch Offset (V)
VCHFILTER	IQUANT	2	Vch Filter
ACHRANGE	IQUANT	2	Ach Range
ACHOFFSETENABLE	TOGGLE	F	Ach Offset Enable
ACHOFFSET	QUANT	0	Ach Offset (V)
ACHFILTER	IQUANT	1	Ach Filter
IERANGELOWERLIMIT	IQUANT	1	I/E Range Lower Limit
IERANGEMODE	TOGGLE	F	I/E AutoRange
IERANGE	IQUANT	6	I/E Range
POSFEEDENABLE	TOGGLE	F	Positive Feedback IR Comp
POSFEEDRESISTANCE	QUANT	0	Positive Feedback Resistance (ohm)
ACHSELECT	IQUANT	0	Ach Select
SENSECABLEID	IQUANT	13	Sense Cable ID
PWRCABLEID	IQUANT	13	Power Cable ID
DCCALDATE	LABEL	6/30/2020	DC Calibration Date
ACCALDATE	LABEL	6/30/2020	AC Calibration Date
THERMOSELECT	IQUANT	1	Thermo Select
FRAMEWORKVERSION	LABEL	7.8.2	Framework Version
INSTRUMENTVERSION	LABEL	4.40	Instrument Version
CURVE	TABLE	101
	Pt	T	Vfwd	Vrev	Vstep	Ifwd	Irev	Idif	Sig	Ach	IERange	Over	Temp
	#	s	V	V	V	A	A	A	V	V	#	bits	deg C
	0	0.1	-3.24845E-001	-3.74873E-001	-3.49859E-001	-6.90985E-008	-1.27296E-007	5.81974E-008	-3.75000E-001	3.35039E-004	6	..........a	-327.68
	1	0.2	-3.22833E-001	-3.72883E-001	-3.47858E-001	-5.58862E-008	-1.21843E-007	6.59567E-008	-3.73000E-001	3.47706E-004	6	..........a	-327.68
	2	0.3	-3.20842E-001	-3.70789E-001	-3.45815E-001	-5.29325E-008	-1.18787E-007	6.58540E-008	-3.71000E-001	3.47873E-004	6	..........a	-327.68
	3	0.4	-3.18881E-001	-3.68898E-001	-3.43890E-001	-5.08596E-008	-1.16564E-007	6.57044E-008	-3.69000E-001	3.39873E-004	6	..........a	-327.68
	4	0.5	-3.16799E-001	-3.66903E-001	-3.41851E-001	-4.94040E-008	-1.14562E-007	6.51583E-008	-3.67000E-001	3.40539E-004	6	..........a	-327.68
	5	0.6	-3.14870E-001	-3.64848E-001	-3.39859E-001	-4.78768E-008	-1.12642E-007	6.47652E-008	-3.65000E-001	3.50206E-004	6	..........a	-327.68
	6	0.7	-3.12872E-001	-3.62813E-001	-3.37843E-001	-4.66940E-008	-1.10546E-007	6.38518E-008	-3.63000E-001	3.34706E-004	6	..........a	-327.68
	7	0.8	-3.10864E-001	-3.60857E-001	-3.35860E-001	-4.53475E-008	-1.09041E-007	6.36934E-008	-3.61000E-001	3.41206E-004	6	..........a	-327.68
	8	0.9	-3.08795E-001	-3.58864E-001	-3.33829E-001	-4.41040E-008	-1.07232E-007	6.31284E-008	-3.59000E-001	3.30373E-004	6	..........a	-327.68
	9	1	-3.06827E-001	-3.56824E-001	-3.31826E-001	-4.29646E-008	-1.05480E-007	6.25153E-008	-3.57000E-001	3.34206E-004	6	..........a	-327.68
	10	1.1	-3.04859E-001	-3.54823E-001	-3.29841E-001	-4.16684E-008	-1.04056E-007	6.23879E-008	-3.55000E-001	3.43539E-004	6	..........a	-327.68
	11	1.2	-3.02878E-001	-3.52880E-001	-3.27879E-001	-4.06469E-008	-1.02218E-007	6.15708E-008	-3.53000E-001	3.32373E-004	6	..........a	-327.68
	12	1.3	-3.00860E-001	-3.50869E-001	-3.25864E-001	-3.94224E-008	-1.00959E-007	6.15362E-008	-3.51000E-001	3.29039E-004	6	..........a	-327.68
	13	1.4	-2.98840E-001	-3.48869E-001	-3.23854E-001	-3.82066E-008	-9.93004E-008	6.10938E-008	-3.49000E-001	3.32039E-004	6	..........a	-327.68
	14	1.5	-2.96864E-001	-3.46858E-001	-3.21861E-001	-3.70095E-008	-9.79769E-008	6.09674E-008	-3.47000E-001	3.24539E-004	6	..........a	-327.68
	15	1.6	-2.94860E-001	-3.44908E-001	-3.19884E-001	-3.59220E-008	-9.64480E-008	6.05260E-008	-3.45000E-001	3.32206E-004	6	..........a	-327.68
	16	1.7	-2.92692E-001	-3.42873E-001	-3.17783E-001	-3.45015E-008	-9.48168E-008	6.03153E-008	-3.43000E-001	3.33039E-004	6	..........a	-327.68
	17	1.8	-2.90800E-001	-3.40866E-001	-3.15833E-001	-3.34427E-008	-9.35700E-008	6.01273E-008	-3.41000E-001	3.25206E-004	6	..........a	-327.68
	18	1.9	-2.88897E-001	-3.38831E-001	-3.13864E-001	-3.22725E-008	-9.22538E-008	5.99813E-008	-3.39000E-001	3.30706E-004	6	..........a	-327.68
	19	2	-2.86871E-001	-3.36855E-001	-3.11863E-001	-3.12557E-008	-9.06669E-008	5.94112E-008	-3.37000E-001	3.19873E-004	6	..........a	-327.68
	20	2.1	-2.84813E-001	-3.34859E-001	-3.09836E-001	-3.02079E-008	-8.93048E-008	5.90968E-008	-3.35000E-001	3.20039E-004	6	..........a	-327.68
	21	2.2	-2.82807E-001	-3.32780E-001	-3.07794E-001	-2.90855E-008	-8.81553E-008	5.90698E-008	-3.33000E-001	3.29539E-004	6	..........a	-327.68
	22	2.3	-2.80874E-001	-3.30811E-001	-3.05842E-001	-2.79893E-008	-8.70962E-008	5.91069E-008	-3.31000E-001	3.18039E-004	6	..........a	-327.68
	23	2.4	-2.78863E-001	-3.28864E-001	-3.03863E-001	-2.68418E-008	-8.56770E-008	5.88351E-008	-3.29000E-001	3.21039E-004	6	..........a	-327.68
	24	2.5	-2.76853E-001	-3.26871E-001	-3.01862E-001	-2.58210E-008	-8.44328E-008	5.86118E-008	-3.27000E-001	3.24039E-004	6	..........a	-327.68
	25	2.6	-2.74841E-001	-3.24862E-001	-2.99851E-001	-2.47172E-008	-8.32723E-008	5.85551E-008	-3.25000E-001	3.35539E-004	6	..........a	-327.68
	26	2.7	-2.72860E-001	-3.22851E-001	-2.97856E-001	-2.35701E-008	-8.21609E-008	5.85908E-008	-3.23000E-001	3.25039E-004	6	..........a	-327.68
	27	2.8	-2.70860E-001	-3.20853E-001	-2.95857E-001	-2.24403E-008	-8.10751E-008	5.86348E-008	-3.21000E-001	3.29873E-004	6	..........a	-327.68
	28	2.9	-2.68868E-001	-3.18879E-001	-2.93874E-001	-2.15982E-008	-8.00143E-008	5.84161E-008	-3.19000E-001	3.41373E-004	6	..........a	-327.68
	29	3	-2.66792E-001	-3.16775E-001	-2.91783E-001	-2.05490E-008	-7.87758E-008	5.82267E-008	-3.17000E-001	3.32206E-004	6	..........a	-327.68
	30	3.1	-2.64897E-001	-3.14872E-001	-2.89885E-001	-1.95606E-008	-7.77466E-008	5.81861E-008	-3.15000E-001	3.40706E-004	6	..........a	-327.68
	31	3.2	-2.62885E-001	-3.12874E-001	-2.87880E-001	-1.83488E-008	-7.68782E-008	5.85295E-008	-3.13000E-001	3.46873E-004	6	..........a	-327.68
	32	3.3	-2.60753E-001	-3.10870E-001	-2.85812E-001	-1.73396E-008	-7.58471E-008	5.85074E-008	-3.11000E-001	3.37706E-004	6	..........a	-327.68
	33	3.4	-2.58808E-001	-3.08842E-001	-2.83825E-001	-1.63798E-008	-7.47866E-008	5.84068E-008	-3.09000E-001	3.35373E-004	6	..........a	-327.68
	34	3.5	-2.56860E-001	-3.06833E-001	-2.81846E-001	-1.55031E-008	-7.38705E-008	5.83674E-008	-3.07000E-001	3.47206E-004	6	..........a	-327.68
	35	3.6	-2.54885E-001	-3.04885E-001	-2.79885E-001	-1.44596E-008	-7.32661E-008	5.88065E-008	-3.05000E-001	3.59206E-004	6	..........a	-327.68
	36	3.7	-2.52806E-001	-3.02880E-001	-2.77843E-001	-1.37595E-008	-7.24016E-008	5.86421E-008	-3.03000E-001	3.47039E-004	6	..........a	-327.68
	37	3.8	-2.50833E-001	-3.00869E-001	-2.75851E-001	-1.28330E-008	-7.13795E-008	5.85464E-008	-3.01000E-001	3.49539E-004	6	..........a	-327.68
	38	3.9	-2.48859E-001	-2.98853E-001	-2.73856E-001	-1.17862E-008	-7.03534E-008	5.85671E-008	-2.99000E-001	3.58873E-004	6	..........a	-327.68
	39	4	-2.46856E-001	-2.96872E-001	-2.71864E-001	-1.09301E-008	-6.93782E-008	5.84481E-008	-2.97000E-001	3.53373E-004	6	..........a	-327.68
	40	4.1	-2.44866E-001	-2.94850E-001	-2.69858E-001	-1.03864E-008	-6.88298E-008	5.84434E-008	-2.95000E-001	3.50706E-004	6	..........a	-327.68
	41	4.2	-2.42784E-001	-2.92747E-001	-2.67765E-001	-9.56630E-009	-6.77407E-008	5.81744E-008	-2.93000E-001	3.45206E-004	6	..........a	-327.68
	42	4.3	-2.40860E-001	-2.90795E-001	-2.65828E-001	-8.93755E-009	-6.69859E-008	5.80484E-008	-2.91000E-001	3.47539E-004	6	..........a	-327.68
	43	4.4	-2.38887E-001	-2.88896E-001	-2.63892E-001	-8.10211E-009	-6.60765E-008	5.79744E-008	-2.89000E-001	3.47706E-004	6	..........a	-327.68
	44	4.5	-2.36792E-001	-2.86874E-001	-2.61833E-001	-7.63472E-009	-6.53051E-008	5.76703E-008	-2.87000E-001	3.40539E-004	6	..........a	-327.68
	45	4.6	-2.34807E-001	-2.84769E-001	-2.59788E-001	-6.78428E-009	-6.42559E-008	5.74716E-008	-2.85000E-001	3.53206E-004	6	..........a	-327.68
	46	4.7	-2.32846E-001	-2.82807E-001	-2.57826E-001	-6.14487E-009	-6.34805E-008	5.73356E-008	-2.83000E-001	3.58873E-004	6	..........a	-327.68
	47	4.8	-2.30855E-001	-2.80890E-001	-2.55872E-001	-5.46711E-009	-6.26191E-008	5.71519E-008	-2.81000E-001	3.38706E-004	6	..........a	-327.68
	48	4.9	-2.28783E-001	-2.78856E-001	-2.53819E-001	-5.04506E-009	-6.18793E-008	5.68342E-008	-2.79000E-001	3.46206E-004	6	..........a	-327.68
	49	5	-2.26806E-001	-2.76842E-001	-2.51824E-001	-4.48965E-009	-6.09218E-008	5.64322E-008	-2.77000E-001	3.53873E-004	6	..........a	-327.68
	50	5.1	-2.24847E-001	-2.74834E-001	-2.49840E-001	-3.92358E-009	-6.01904E-008	5.62668E-008	-2.75000E-001	3.43539E-004	6	..........a	-327.68
	51	5.2	-2.22862E-001	-2.72850E-001	-2.47856E-001	-3.38485E-009	-5.91489E-008	5.57641E-008	-2.73000E-001	3.37039E-004	6	..........a	-327.68
	52	5.3	-2.20852E-001	-2.70837E-001	-2.45844E-001	-3.01847E-009	-5.84509E-008	5.54324E-008	-2.71000E-001	3.51039E-004	6	..........a	-327.68
	53	5.4	-2.18844E-001	-2.68841E-001	-2.43842E-001	-2.45306E-009	-5.73304E-008	5.48773E-008	-2.69000E-001	3.50706E-004	6	..........a	-327.68
	54	5.5	-2.16868E-001	-2.66793E-001	-2.41831E-001	-1.81131E-009	-5.64673E-008	5.46560E-008	-2.67000E-001	3.46373E-004	6	..........a	-327.68
	55	5.6	-2.14886E-001	-2.64880E-001	-2.39883E-001	-1.42560E-009	-5.55845E-008	5.41589E-008	-2.65000E-001	3.41873E-004	6	..........a	-327.68
	56	5.7	-2.12840E-001	-2.62843E-001	-2.37842E-001	-1.00488E-009	-5.47787E-008	5.37738E-008	-2.63000E-001	3.42373E-004	6	..........a	-327.68
	57	5.8	-2.10841E-001	-2.60814E-001	-2.35827E-001	-3.96467E-010	-5.37413E-008	5.33448E-008	-2.61000E-001	3.46039E-004	6	..........a	-327.68
	58	5.9	-2.08855E-001	-2.58808E-001	-2.33831E-001	-7.94268E-011	-5.30195E-008	5.29401E-008	-2.59000E-001	3.39373E-004	6	..........a	-327.68
	59	6	-2.06867E-001	-2.56848E-001	-2.31858E-001	4.44640E-010	-5.19187E-008	5.23633E-008	-2.57000E-001	3.29706E-004	6	..........a	-327.68
	60	6.1	-2.04789E-001	-2.54868E-001	-2.29829E-001	1.04238E-009	-5.13056E-008	5.23480E-008	-2.55000E-001	3.46373E-004	6	..........a	-327.68
	61	6.2	-2.02805E-001	-2.52844E-001	-2.27824E-001	1.26008E-009	-5.04732E-008	5.17333E-008	-2.53000E-001	3.24373E-004	6	..........a	-327.68
	62	6.3	-2.00858E-001	-2.50834E-001	-2.25846E-001	1.86182E-009	-4.97027E-008	5.15646E-008	-2.51000E-001	3.32373E-004	6	..........a	-327.68
	63	6.4	-1.98879E-001	-2.48872E-001	-2.23875E-001	2.23287E-009	-4.86853E-008	5.09181E-008	-2.49000E-001	3.27039E-004	6	..........a	-327.68
	64	6.5	-1.96850E-001	-2.46859E-001	-2.21855E-001	2.64159E-009	-4.79362E-008	5.05778E-008	-2.47000E-001	3.26373E-004	6	..........a	-327.68
	65	6.6	-1.94840E-001	-2.44863E-001	-2.19852E-001	2.91129E-009	-4.71394E-008	5.00507E-008	-2.45000E-001	3.15206E-004	6	..........a	-327.68
	66	6.7	-1.92873E-001	-2.42784E-001	-2.17828E-001	3.49203E-009	-4.64833E-008	4.99754E-008	-2.43000E-001	3.29373E-004	6	..........a	-327.68
	67	6.8	-1.90886E-001	-2.40886E-001	-2.15886E-001	3.72906E-009	-4.55195E-008	4.92486E-008	-2.41000E-001	3.20873E-004	6	..........a	-327.68
	68	6.9	-1.88734E-001	-2.38890E-001	-2.13812E-001	4.14878E-009	-4.46304E-008	4.87792E-008	-2.39000E-001	3.22873E-004	6	..........a	-327.68
	69	7	-1.86827E-001	-2.36874E-001	-2.11851E-001	4.59617E-009	-4.38337E-008	4.84298E-008	-2.37000E-001	3.23206E-004	6	..........a	-327.68
	70	7.1	-1.84885E-001	-2.34816E-001	-2.09851E-001	4.97022E-009	-4.33879E-008	4.83582E-008	-2.35000E-001	3.26206E-004	6	..........a	-327.68
	71	7.2	-1.82857E-001	-2.32857E-001	-2.07857E-001	5.55696E-009	-4.24755E-008	4.80324E-008	-2.33000E-001	3.16539E-004	6	..........a	-327.68
	72	7.3	-1.80787E-001	-2.30862E-001	-2.05825E-001	5.91467E-009	-4.18011E-008	4.77157E-008	-2.31000E-001	3.16206E-004	6	..........a	-327.68
	73	7.4	-1.78798E-001	-2.28765E-001	-2.03781E-001	6.19270E-009	-4.10873E-008	4.72800E-008	-2.29000E-001	3.09873E-004	6	..........a	-327.68
	74	7.5	-1.76838E-001	-2.26818E-001	-2.01828E-001	6.70010E-009	-4.04216E-008	4.71217E-008	-2.27000E-001	3.14539E-004	6	..........a	-327.68
	75	7.6	-1.74869E-001	-2.24866E-001	-1.99868E-001	7.08649E-009	-3.97495E-008	4.68360E-008	-2.25000E-001	3.14206E-004	6	..........a	-327.68
	76	7.7	-1.72813E-001	-2.22861E-001	-1.97837E-001	7.17016E-009	-3.91551E-008	4.63252E-008	-2.23000E-001	3.09706E-004	6	..........a	-327.68
	77	7.8	-1.70818E-001	-2.20838E-001	-1.95828E-001	7.93326E-009	-3.83646E-008	4.62979E-008	-2.21000E-001	3.17206E-004	6	..........a	-327.68
	78	7.9	-1.68862E-001	-2.18852E-001	-1.93857E-001	8.38698E-009	-3.80166E-008	4.64036E-008	-2.19000E-001	3.24206E-004	6	..........a	-327.68
	79	8	-1.66876E-001	-2.16873E-001	-1.91874E-001	8.73469E-009	-3.71551E-008	4.58898E-008	-2.17000E-001	3.11039E-004	6	..........a	-327.68
	80	8.1	-1.64663E-001	-2.14884E-001	-1.89773E-001	8.93372E-009	-3.66944E-008	4.56281E-008	-2.15000E-001	3.12873E-004	6	..........a	-327.68
	81	8.2	-1.62784E-001	-2.12785E-001	-1.87784E-001	9.56013E-009	-3.63237E-008	4.58838E-008	-2.13000E-001	3.11539E-004	6	..........a	-327.68
	82	8.3	-1.60882E-001	-2.10848E-001	-1.85865E-001	9.94318E-009	-3.54903E-008	4.54334E-008	-2.11000E-001	3.08039E-004	6	..........a	-327.68
	83	8.4	-1.58867E-001	-2.08857E-001	-1.83862E-001	1.02552E-008	-3.50122E-008	4.52674E-008	-2.09000E-001	3.10873E-004	6	..........a	-327.68
	84	8.5	-1.56756E-001	-2.06875E-001	-1.81815E-001	1.05356E-008	-3.44391E-008	4.49747E-008	-2.07000E-001	3.14539E-004	6	..........a	-327.68
	85	8.6	-1.54777E-001	-2.04819E-001	-1.79798E-001	1.09100E-008	-3.38744E-008	4.47844E-008	-2.05000E-001	3.16373E-004	6	..........a	-327.68
	86	8.7	-1.52864E-001	-2.02824E-001	-1.77844E-001	1.12130E-008	-3.35083E-008	4.47214E-008	-2.03000E-001	3.07873E-004	6	..........a	-327.68
	87	8.8	-1.50869E-001	-2.00867E-001	-1.75868E-001	1.17024E-008	-3.29823E-008	4.46847E-008	-2.01000E-001	3.14706E-004	6	..........a	-327.68
	88	8.9	-1.48818E-001	-1.98891E-001	-1.73855E-001	1.19728E-008	-3.25386E-008	4.45113E-008	-1.99000E-001	3.13206E-004	6	..........a	-327.68
	89	9	-1.46838E-001	-1.96856E-001	-1.71847E-001	1.22788E-008	-3.18905E-008	4.41693E-008	-1.97000E-001	3.11373E-004	6	..........a	-327.68
	90	9.1	-1.44865E-001	-1.94854E-001	-1.69860E-001	1.28412E-008	-3.16324E-008	4.44737E-008	-1.95000E-001	3.18039E-004	6	..........a	-327.68
	91	9.2	-1.42882E-001	-1.92862E-001	-1.67872E-001	1.32686E-008	-3.11204E-008	4.43890E-008	-1.93000E-001	3.18039E-004	6	..........a	-327.68
	92	9.3	-1.40849E-001	-1.90881E-001	-1.65865E-001	1.34536E-008	-3.09060E-008	4.43596E-008	-1.91000E-001	3.08539E-004	6	..........a	-327.68
	93	9.4	-1.38770E-001	-1.88755E-001	-1.63763E-001	1.37360E-008	-3.02523E-008	4.39883E-008	-1.89000E-001	3.08706E-004	6	..........a	-327.68
	94	9.5	-1.36846E-001	-1.86834E-001	-1.61840E-001	1.40860E-008	-2.98122E-008	4.38983E-008	-1.87000E-001	3.16373E-004	6	..........a	-327.68
	95	9.6	-1.34885E-001	-1.84881E-001	-1.59883E-001	1.43361E-008	-2.94385E-008	4.37746E-008	-1.85000E-001	3.07539E-004	6	..........a	-327.68
	96	9.7	-1.32731E-001	-1.82866E-001	-1.57799E-001	1.46614E-008	-2.88268E-008	4.34882E-008	-1.83000E-001	3.19039E-004	6	..........a	-327.68
	97	9.8	-1.30788E-001	-1.80780E-001	-1.55784E-001	1.48678E-008	-2.84674E-008	4.33352E-008	-1.81000E-001	3.12373E-004	6	..........a	-327.68
	98	9.9	-1.28827E-001	-1.78811E-001	-1.53819E-001	1.53305E-008	-2.81510E-008	4.34815E-008	-1.79000E-001	3.23039E-004	6	..........a	-327.68
	99	10	-1.26874E-001	-1.76851E-001	-1.51862E-001	1.57056E-008	-2.78390E-008	4.35445E-008	-1.77000E-001	3.17706E-004	6	..........a	-327.68
	100	10.1	-1.24780E-001	-1.74872E-001	-1.49826E-001	1.61200E-008	-2.74006E-008	4.35205E-008	-1.75000E-001	3.08706E-004	6	..........a	-327.68
