EXPLAIN
TAG	SQUARE_WAVE
TITLE	LABEL	Square Wave Voltammetry	Test Identifier
DATE	LABEL	8/10/2020	Date
TIME	LABEL	16:40:49	Time
NOTES	NOTES	1	Notes...
	
PSTAT	PSTAT	REF600-24079	Potentiostat
VINIT	QUANT	-3.50000E-001	Initial E (V)
VFINAL	QUANT	-1.50000E-001	Final E (V)
STEPSIZE	QUANT	2.00000E+000	Step Size (mV)
TIMERRES	QUANT	3.33340E-005	&Timer Resolution
FREQUENCY	QUANT	5.00000E+001	Frequency (Hz)
PULSESIZE	QUANT	2.50000E+001	Pulse Size E (mV)
PULSEON	QUANT	2.00000E-002	Pulse &Time (s)
NOISEREJECT	TOGGLE	F	Noise Rejection
AREA	QUANT	2.00000E-002	Sample Area (cm^2)
IMODE	SELECTOR	1	I/E Range Mode
IRANGE	QUANT	1.00000E-003	Max Current (mA)
EQDELAY	IQUANT	10	Equil. Time (s)
IRCOMP	SELECTOR	0	IRComp
PFCOR	QUANT	5.00000E+001	PF Corr. (ohm)
CYCLES	IQUANT	101	C&ycles (#)
ELECTRODETYPE	SELECTOR	0	Electrode Type
STRIPPING	TOGGLE	F	Used for Stripping
POLARITY	TOGGLE	F	Signal Polarity
LINEFREQ	IQUANT	60	Line Frequency (Hz)
INTPERIOD	QUANT	3.3334E-005	Integration Period (s)
SEQUENCER	TOGGLE	TRUE	Run as Sequence
PSTATMODEL	IQUANT	4	Pstat Model
PSTATSECTION	LABEL	REF600-24079	Pstat Section
PSTATSERIALNO	LABEL	24079	Pstat Serial Number
CTRLMODE	IQUANT	1	Control Mode
ELECTROMETER	IQUANT	0	RE=0 or CS=1
IESTAB	IQUANT	2	I/E Stability
CASPEED	IQUANT	6	Control Amp Speed
CONVENTION	IQUANT	1	Current Convention
ICHRANGE	IQUANT	2	Ich Range
ICHRANGEMODE	TOGGLE	F	Ich Auto Range
ICHOFFSETENABLE	TOGGLE	F	Ich Offset Enable
ICHOFFSET	QUANT	0	Ich Offset (V)
ICHFILTER	IQUANT	2	Ich Filter
VCHRANGE	IQUANT	2	Vch Range
VCHRANGEMODE	TOGGLE	F	Vch Auto Range
VCHOFFSETENABLE	TOGGLE	F	Vch Offset Enable
VCHOFFSET	QUANT	0	Vch Offset (V)
VCHFILTER	IQUANT	2	Vch Filter
ACHRANGE	IQUANT	2	Ach Range
ACHOFFSETENABLE	TOGGLE	F	Ach Offset Enable
ACHOFFSET	QUANT	0	Ach Offset (V)
ACHFILTER	IQUANT	1	Ach Filter
IERANGELOWERLIMIT	IQUANT	1	I/E Range Lower Limit
IERANGEMODE	TOGGLE	F	I/E AutoRange
IERANGE	IQUANT	6	I/E Range
POSFEEDENABLE	TOGGLE	F	Positive Feedback IR Comp
POSFEEDRESISTANCE	QUANT	0	Positive Feedback Resistance (ohm)
ACHSELECT	IQUANT	0	Ach Select
SENSECABLEID	IQUANT	13	Sense Cable ID
PWRCABLEID	IQUANT	13	Power Cable ID
DCCALDATE	LABEL	6/30/2020	DC Calibration Date
ACCALDATE	LABEL	6/30/2020	AC Calibration Date
THERMOSELECT	IQUANT	1	Thermo Select
FRAMEWORKVERSION	LABEL	7.8.2	Framework Version
INSTRUMENTVERSION	LABEL	4.40	Instrument Version
CURVE	TABLE	101
	Pt	T	Vfwd	Vrev	Vstep	Ifwd	Irev	Idif	Sig	Ach	IERange	Over	Temp
	#	s	V	V	V	A	A	A	V	V	#	bits	deg C
	0	0.02	-3.24889E-001	-3.75771E-001	-3.50330E-001	-1.02601E-007	9.16062E-007	-1.01866E-006	-3.75000E-001	4.32706E-004	6	..........a	-327.68
	1	0.04	-3.22761E-001	-3.73166E-001	-3.47964E-001	-1.24953E-006	9.14000E-007	-2.16353E-006	-3.73000E-001	4.02706E-004	6	..........a	-327.68
	2	0.06	-3.20710E-001	-3.71160E-001	-3.45935E-001	-1.22824E-006	9.23585E-007	-2.15182E-006	-3.71000E-001	4.12706E-004	6	..........a	-327.68
	3	0.08	-3.18704E-001	-3.69153E-001	-3.43928E-001	-1.22069E-006	9.28229E-007	-2.14892E-006	-3.69000E-001	3.96873E-004	6	..........a	-327.68
	4	0.1	-3.16706E-001	-3.67163E-001	-3.41934E-001	-1.21589E-006	9.32522E-007	-2.14841E-006	-3.67000E-001	4.31039E-004	6	..........a	-327.68
	5	0.12	-3.14709E-001	-3.65150E-001	-3.39929E-001	-1.21345E-006	9.36628E-007	-2.15008E-006	-3.65000E-001	3.96873E-004	6	..........a	-327.68
	6	0.14	-3.12732E-001	-3.63135E-001	-3.37933E-001	-1.21014E-006	9.40639E-007	-2.15078E-006	-3.63000E-001	4.13539E-004	6	..........a	-327.68
	7	0.16	-3.10709E-001	-3.61123E-001	-3.35916E-001	-1.20796E-006	9.42255E-007	-2.15022E-006	-3.61000E-001	4.16873E-004	6	..........a	-327.68
	8	0.18	-3.08719E-001	-3.59138E-001	-3.33928E-001	-1.20377E-006	9.44799E-007	-2.14856E-006	-3.59000E-001	4.24373E-004	6	..........a	-327.68
	9	0.2	-3.06734E-001	-3.57100E-001	-3.31917E-001	-1.20083E-006	9.47754E-007	-2.14858E-006	-3.57000E-001	4.06039E-004	6	..........a	-327.68
	10	0.22	-3.04738E-001	-3.55116E-001	-3.29927E-001	-1.19939E-006	9.50715E-007	-2.15010E-006	-3.55000E-001	3.95206E-004	6	..........a	-327.68
	11	0.24	-3.02740E-001	-3.53118E-001	-3.27929E-001	-1.19742E-006	9.53894E-007	-2.15132E-006	-3.53000E-001	3.96039E-004	6	..........a	-327.68
	12	0.26	-3.00741E-001	-3.51115E-001	-3.25928E-001	-1.19506E-006	9.55047E-007	-2.15011E-006	-3.51000E-001	3.72706E-004	6	..........a	-327.68
	13	0.28	-2.98736E-001	-3.49115E-001	-3.23925E-001	-1.19159E-006	9.56224E-007	-2.14782E-006	-3.49000E-001	4.06873E-004	6	..........a	-327.68
	14	0.3	-2.96721E-001	-3.47097E-001	-3.21909E-001	-1.18879E-006	9.58166E-007	-2.14695E-006	-3.47000E-001	4.09373E-004	6	..........a	-327.68
	15	0.32	-2.94731E-001	-3.45096E-001	-3.19913E-001	-1.18762E-006	9.61843E-007	-2.14946E-006	-3.45000E-001	3.96039E-004	6	..........a	-327.68
	16	0.34	-2.92726E-001	-3.43092E-001	-3.17909E-001	-1.18536E-006	9.63776E-007	-2.14914E-006	-3.43000E-001	4.19373E-004	6	..........a	-327.68
	17	0.36	-2.90729E-001	-3.41105E-001	-3.15917E-001	-1.18373E-006	9.65482E-007	-2.14922E-006	-3.41000E-001	4.00206E-004	6	..........a	-327.68
	18	0.38	-2.88726E-001	-3.39081E-001	-3.13903E-001	-1.18061E-006	9.66635E-007	-2.14725E-006	-3.39000E-001	3.89373E-004	6	..........a	-327.68
	19	0.4	-2.86730E-001	-3.37095E-001	-3.11912E-001	-1.17823E-006	9.68154E-007	-2.14639E-006	-3.37000E-001	4.11873E-004	6	..........a	-327.68
	20	0.42	-2.84713E-001	-3.35061E-001	-3.09887E-001	-1.17638E-006	9.70889E-007	-2.14727E-006	-3.35000E-001	3.90206E-004	6	..........a	-327.68
	21	0.44	-2.82707E-001	-3.33070E-001	-3.07888E-001	-1.17491E-006	9.73356E-007	-2.14827E-006	-3.33000E-001	4.24373E-004	6	..........a	-327.68
	22	0.46	-2.80697E-001	-3.31053E-001	-3.05875E-001	-1.17280E-006	9.73724E-007	-2.14652E-006	-3.31000E-001	3.95206E-004	6	..........a	-327.68
	23	0.48	-2.78712E-001	-3.29066E-001	-3.03889E-001	-1.16990E-006	9.75958E-007	-2.14586E-006	-3.29000E-001	3.93539E-004	6	..........a	-327.68
	24	0.5	-2.76711E-001	-3.27095E-001	-3.01903E-001	-1.16725E-006	9.76937E-007	-2.14419E-006	-3.27000E-001	3.94373E-004	6	..........a	-327.68
	25	0.52	-2.74711E-001	-3.25077E-001	-2.99894E-001	-1.16558E-006	9.78773E-007	-2.14435E-006	-3.25000E-001	4.23539E-004	6	..........a	-327.68
	26	0.54	-2.72697E-001	-3.23076E-001	-2.97886E-001	-1.16452E-006	9.80414E-007	-2.14493E-006	-3.23000E-001	4.11873E-004	6	..........a	-327.68
	27	0.56	-2.70714E-001	-3.21075E-001	-2.95894E-001	-1.16246E-006	9.81832E-007	-2.14429E-006	-3.21000E-001	4.01873E-004	6	..........a	-327.68
	28	0.58	-2.68683E-001	-3.19073E-001	-2.93878E-001	-1.15874E-006	9.82661E-007	-2.14140E-006	-3.19000E-001	4.25206E-004	6	..........a	-327.68
	29	0.6	-2.66693E-001	-3.17051E-001	-2.91872E-001	-1.15601E-006	9.84027E-007	-2.14004E-006	-3.17000E-001	3.85206E-004	6	..........a	-327.68
	30	0.62	-2.64691E-001	-3.15073E-001	-2.89882E-001	-1.15511E-006	9.86179E-007	-2.14129E-006	-3.15000E-001	3.95206E-004	6	..........a	-327.68
	31	0.64	-2.62686E-001	-3.13064E-001	-2.87875E-001	-1.15349E-006	9.87515E-007	-2.14100E-006	-3.13000E-001	4.02706E-004	6	..........a	-327.68
	32	0.66	-2.60679E-001	-3.11037E-001	-2.85858E-001	-1.15155E-006	9.88261E-007	-2.13981E-006	-3.11000E-001	4.16873E-004	6	..........a	-327.68
	33	0.68	-2.58670E-001	-3.09061E-001	-2.83865E-001	-1.14839E-006	9.88720E-007	-2.13711E-006	-3.09000E-001	4.01039E-004	6	..........a	-327.68
	34	0.7	-2.56669E-001	-3.07068E-001	-2.81868E-001	-1.14598E-006	9.89356E-007	-2.13533E-006	-3.07000E-001	4.01873E-004	6	..........a	-327.68
	35	0.72	-2.54682E-001	-3.05061E-001	-2.79871E-001	-1.14442E-006	9.91130E-007	-2.13555E-006	-3.05000E-001	4.06873E-004	6	..........a	-327.68
	36	0.74	-2.52658E-001	-3.03077E-001	-2.77868E-001	-1.14282E-006	9.92370E-007	-2.13519E-006	-3.03000E-001	4.11873E-004	6	..........a	-327.68
	37	0.76	-2.50672E-001	-3.01069E-001	-2.75871E-001	-1.14202E-006	9.92534E-007	-2.13455E-006	-3.01000E-001	3.88539E-004	6	..........a	-327.68
	38	0.78	-2.48666E-001	-2.99064E-001	-2.73865E-001	-1.13815E-006	9.92417E-007	-2.13056E-006	-2.99000E-001	3.93539E-004	6	..........a	-327.68
	39	0.8	-2.46669E-001	-2.97074E-001	-2.71871E-001	-1.13546E-006	9.93910E-007	-2.12937E-006	-2.97000E-001	3.89373E-004	6	..........a	-327.68
	40	0.82	-2.44655E-001	-2.95061E-001	-2.69858E-001	-1.13509E-006	9.95592E-007	-2.13069E-006	-2.95000E-001	3.85206E-004	6	..........a	-327.68
	41	0.84	-2.42646E-001	-2.93086E-001	-2.67866E-001	-1.13346E-006	9.96994E-007	-2.13045E-006	-2.93000E-001	3.96873E-004	6	..........a	-327.68
	42	0.86	-2.40648E-001	-2.91071E-001	-2.65860E-001	-1.13143E-006	9.96372E-007	-2.12780E-006	-2.91000E-001	3.90206E-004	6	..........a	-327.68
	43	0.88	-2.38674E-001	-2.89092E-001	-2.63883E-001	-1.12962E-006	9.97076E-007	-2.12669E-006	-2.89000E-001	4.21873E-004	6	..........a	-327.68
	44	0.9	-2.36649E-001	-2.87076E-001	-2.61863E-001	-1.12707E-006	9.97382E-007	-2.12446E-006	-2.87000E-001	4.07706E-004	6	..........a	-327.68
	45	0.92	-2.34653E-001	-2.85034E-001	-2.59843E-001	-1.12640E-006	9.99313E-007	-2.12571E-006	-2.85000E-001	4.03539E-004	6	..........a	-327.68
	46	0.94	-2.32628E-001	-2.83073E-001	-2.57851E-001	-1.12550E-006	1.00067E-006	-2.12617E-006	-2.83000E-001	4.03539E-004	6	..........a	-327.68
	47	0.96	-2.30647E-001	-2.81094E-001	-2.55871E-001	-1.12523E-006	9.99896E-007	-2.12512E-006	-2.81000E-001	3.91873E-004	6	..........a	-327.68
	48	0.98	-2.28650E-001	-2.79075E-001	-2.53862E-001	-1.12286E-006	1.00076E-006	-2.12362E-006	-2.79000E-001	3.92706E-004	6	..........a	-327.68
	49	1	-2.26644E-001	-2.77060E-001	-2.51852E-001	-1.12032E-006	1.00146E-006	-2.12178E-006	-2.77000E-001	4.01039E-004	6	..........a	-327.68
	50	1.02	-2.24635E-001	-2.75046E-001	-2.49841E-001	-1.12070E-006	1.00231E-006	-2.12301E-006	-2.75000E-001	4.19373E-004	6	..........a	-327.68
	51	1.04	-2.22649E-001	-2.73084E-001	-2.47866E-001	-1.11965E-006	1.00322E-006	-2.12287E-006	-2.73000E-001	4.09373E-004	6	..........a	-327.68
	52	1.06	-2.20651E-001	-2.71076E-001	-2.45863E-001	-1.11923E-006	1.00377E-006	-2.12299E-006	-2.71000E-001	4.00206E-004	6	..........a	-327.68
	53	1.08	-2.18646E-001	-2.69068E-001	-2.43857E-001	-1.11851E-006	1.00405E-006	-2.12256E-006	-2.69000E-001	3.98539E-004	6	..........a	-327.68
	54	1.1	-2.16666E-001	-2.67062E-001	-2.41864E-001	-1.11572E-006	1.00511E-006	-2.12083E-006	-2.67000E-001	4.04373E-004	6	..........a	-327.68
	55	1.12	-2.14658E-001	-2.65080E-001	-2.39869E-001	-1.11660E-006	1.00634E-006	-2.12294E-006	-2.65000E-001	4.16039E-004	6	..........a	-327.68
	56	1.14	-2.12670E-001	-2.63071E-001	-2.37871E-001	-1.11649E-006	1.00849E-006	-2.12498E-006	-2.63000E-001	3.98539E-004	6	..........a	-327.68
	57	1.16	-2.10656E-001	-2.61069E-001	-2.35862E-001	-1.11622E-006	1.00836E-006	-2.12458E-006	-2.61000E-001	3.81873E-004	6	..........a	-327.68
	58	1.18	-2.08678E-001	-2.59042E-001	-2.33860E-001	-1.11436E-006	1.00924E-006	-2.12360E-006	-2.59000E-001	3.76039E-004	6	..........a	-327.68
	59	1.2	-2.06665E-001	-2.57055E-001	-2.31860E-001	-1.11366E-006	1.01007E-006	-2.12373E-006	-2.57000E-001	3.87706E-004	6	..........a	-327.68
	60	1.22	-2.04671E-001	-2.55065E-001	-2.29868E-001	-1.11376E-006	1.01130E-006	-2.12506E-006	-2.55000E-001	4.07706E-004	6	..........a	-327.68
	61	1.24	-2.02675E-001	-2.53059E-001	-2.27867E-001	-1.11459E-006	1.01377E-006	-2.12836E-006	-2.53000E-001	3.77706E-004	6	..........a	-327.68
	62	1.26	-2.00691E-001	-2.51047E-001	-2.25869E-001	-1.11365E-006	1.01336E-006	-2.12702E-006	-2.51000E-001	4.11873E-004	6	..........a	-327.68
	63	1.28	-1.98691E-001	-2.49063E-001	-2.23877E-001	-1.11290E-006	1.01470E-006	-2.12760E-006	-2.49000E-001	3.87706E-004	6	..........a	-327.68
	64	1.3	-1.96672E-001	-2.47043E-001	-2.21858E-001	-1.11181E-006	1.01576E-006	-2.12757E-006	-2.47000E-001	3.97706E-004	6	..........a	-327.68
	65	1.32	-1.94701E-001	-2.45052E-001	-2.19877E-001	-1.11231E-006	1.01786E-006	-2.13017E-006	-2.45000E-001	3.97706E-004	6	..........a	-327.68
	66	1.34	-1.92699E-001	-2.43061E-001	-2.17880E-001	-1.11288E-006	1.01956E-006	-2.13244E-006	-2.43000E-001	4.27706E-004	6	..........a	-327.68
	67	1.36	-1.90701E-001	-2.41061E-001	-2.15881E-001	-1.11281E-006	1.01971E-006	-2.13252E-006	-2.41000E-001	4.07706E-004	6	..........a	-327.68
	68	1.38	-1.88714E-001	-2.39035E-001	-2.13874E-001	-1.11157E-006	1.02047E-006	-2.13204E-006	-2.39000E-001	3.80206E-004	6	..........a	-327.68
	69	1.4	-1.86720E-001	-2.37031E-001	-2.11876E-001	-1.11037E-006	1.02233E-006	-2.13270E-006	-2.37000E-001	4.07706E-004	6	..........a	-327.68
	70	1.42	-1.84701E-001	-2.35016E-001	-2.09858E-001	-1.11052E-006	1.02437E-006	-2.13489E-006	-2.35000E-001	4.25206E-004	6	..........a	-327.68
	71	1.44	-1.82687E-001	-2.33023E-001	-2.07855E-001	-1.11145E-006	1.02600E-006	-2.13745E-006	-2.33000E-001	3.94373E-004	6	..........a	-327.68
	72	1.46	-1.80698E-001	-2.31020E-001	-2.05859E-001	-1.11134E-006	1.02620E-006	-2.13755E-006	-2.31000E-001	4.18539E-004	6	..........a	-327.68
	73	1.48	-1.78731E-001	-2.29026E-001	-2.03878E-001	-1.11050E-006	1.02728E-006	-2.13778E-006	-2.29000E-001	4.15206E-004	6	..........a	-327.68
	74	1.5	-1.76718E-001	-2.27017E-001	-2.01868E-001	-1.10943E-006	1.02842E-006	-2.13785E-006	-2.27000E-001	4.19373E-004	6	..........a	-327.68
	75	1.52	-1.74709E-001	-2.25011E-001	-1.99860E-001	-1.10935E-006	1.03055E-006	-2.13990E-006	-2.25000E-001	4.31873E-004	6	..........a	-327.68
	76	1.54	-1.72721E-001	-2.23017E-001	-1.97869E-001	-1.10967E-006	1.03257E-006	-2.14224E-006	-2.23000E-001	3.85206E-004	6	..........a	-327.68
	77	1.56	-1.70716E-001	-2.21010E-001	-1.95863E-001	-1.10938E-006	1.03302E-006	-2.14240E-006	-2.21000E-001	3.97706E-004	6	..........a	-327.68
	78	1.58	-1.68736E-001	-2.19007E-001	-1.93871E-001	-1.10818E-006	1.03419E-006	-2.14236E-006	-2.19000E-001	4.14373E-004	6	..........a	-327.68
	79	1.6	-1.66734E-001	-2.17004E-001	-1.91869E-001	-1.10723E-006	1.03511E-006	-2.14234E-006	-2.17000E-001	3.76873E-004	6	..........a	-327.68
	80	1.62	-1.64724E-001	-2.15022E-001	-1.89873E-001	-1.10773E-006	1.03694E-006	-2.14468E-006	-2.15000E-001	3.86039E-004	6	..........a	-327.68
	81	1.64	-1.62731E-001	-2.12998E-001	-1.87865E-001	-1.10766E-006	1.03997E-006	-2.14763E-006	-2.13000E-001	4.09373E-004	6	..........a	-327.68
	82	1.66	-1.60741E-001	-2.11013E-001	-1.85877E-001	-1.10695E-006	1.03991E-006	-2.14685E-006	-2.11000E-001	3.89373E-004	6	..........a	-327.68
	83	1.68	-1.58754E-001	-2.09006E-001	-1.83880E-001	-1.10654E-006	1.04085E-006	-2.14739E-006	-2.09000E-001	3.73539E-004	6	..........a	-327.68
	84	1.7	-1.56735E-001	-2.07002E-001	-1.81868E-001	-1.10528E-006	1.04210E-006	-2.14738E-006	-2.07000E-001	3.88539E-004	6	..........a	-327.68
	85	1.72	-1.54727E-001	-2.04996E-001	-1.79861E-001	-1.10521E-006	1.04417E-006	-2.14938E-006	-2.05000E-001	4.07706E-004	6	..........a	-327.68
	86	1.74	-1.52721E-001	-2.02995E-001	-1.77858E-001	-1.10492E-006	1.04535E-006	-2.15027E-006	-2.03000E-001	3.84373E-004	6	..........a	-327.68
	87	1.76	-1.50740E-001	-2.01007E-001	-1.75873E-001	-1.10465E-006	1.04687E-006	-2.15152E-006	-2.01000E-001	4.06039E-004	6	..........a	-327.68
	88	1.78	-1.48741E-001	-1.98999E-001	-1.73870E-001	-1.10371E-006	1.04635E-006	-2.15006E-006	-1.99000E-001	4.05206E-004	6	..........a	-327.68
	89	1.8	-1.46729E-001	-1.96990E-001	-1.71859E-001	-1.10289E-006	1.04809E-006	-2.15098E-006	-1.97000E-001	3.90206E-004	6	..........a	-327.68
	90	1.82	-1.44724E-001	-1.94996E-001	-1.69860E-001	-1.10275E-006	1.04971E-006	-2.15246E-006	-1.95000E-001	4.01039E-004	6	..........a	-327.68
	91	1.84	-1.42741E-001	-1.92986E-001	-1.67863E-001	-1.10288E-006	1.05103E-006	-2.15392E-006	-1.93000E-001	4.09373E-004	6	..........a	-327.68
	92	1.86	-1.40715E-001	-1.90966E-001	-1.65840E-001	-1.10278E-006	1.05151E-006	-2.15429E-006	-1.91000E-001	4.11039E-004	6	..........a	-327.68
	93	1.88	-1.38713E-001	-1.88977E-001	-1.63845E-001	-1.10204E-006	1.05204E-006	-2.15408E-006	-1.89000E-001	3.99373E-004	6	..........a	-327.68
	94	1.9	-1.36721E-001	-1.87005E-001	-1.61863E-001	-1.10034E-006	1.05343E-006	-2.15377E-006	-1.87000E-001	3.94373E-004	6	..........a	-327.68
	95	1.92	-1.34736E-001	-1.85004E-001	-1.59870E-001	-1.09990E-006	1.05511E-006	-2.15501E-006	-1.85000E-001	4.10206E-004	6	..........a	-327.68
	96	1.94	-1.32716E-001	-1.82991E-001	-1.57853E-001	-1.10011E-006	1.05661E-006	-2.15672E-006	-1.83000E-001	3.97706E-004	6	..........a	-327.68
	97	1.96	-1.30704E-001	-1.80973E-001	-1.55838E-001	-1.10013E-006	1.05643E-006	-2.15656E-006	-1.81000E-001	4.13539E-004	6	..........a	-327.68
	98	1.98	-1.28698E-001	-1.78973E-001	-1.53836E-001	-1.09872E-006	1.05745E-006	-2.15617E-006	-1.79000E-001	3.86039E-004	6	..........a	-327.68
	99	2	-1.26706E-001	-1.76987E-001	-1.51847E-001	-1.09823E-006	1.05760E-006	-2.15582E-006	-1.77000E-001	4.12706E-004	6	..........a	-327.68
	100	2.02	-1.24701E-001	-1.74989E-001	-1.49845E-001	-1.09788E-006	1.05919E-006	-2.15707E-006	-1.75000E-001	3.97706E-004	6	..........a	-327.68
