EXPLAIN
TAG	SQUARE_WAVE
TITLE	LABEL	Square Wave Voltammetry	Test Identifier
DATE	LABEL	8/10/2020	Date
TIME	LABEL	16:39:44	Time
NOTES	NOTES	1	Notes...
	
PSTAT	PSTAT	REF600-24079	Potentiostat
VINIT	QUANT	-3.50000E-001	Initial E (V)
VFINAL	QUANT	-1.50000E-001	Final E (V)
STEPSIZE	QUANT	2.00000E+000	Step Size (mV)
TIMERRES	QUANT	3.33340E-005	&Timer Resolution
FREQUENCY	QUANT	5.00000E+000	Frequency (Hz)
PULSESIZE	QUANT	2.50000E+001	Pulse Size E (mV)
PULSEON	QUANT	2.00000E-001	Pulse &Time (s)
NOISEREJECT	TOGGLE	F	Noise Rejection
AREA	QUANT	2.00000E-002	Sample Area (cm^2)
IMODE	SELECTOR	1	I/E Range Mode
IRANGE	QUANT	1.00000E-003	Max Current (mA)
EQDELAY	IQUANT	10	Equil. Time (s)
IRCOMP	SELECTOR	0	IRComp
PFCOR	QUANT	5.00000E+001	PF Corr. (ohm)
CYCLES	IQUANT	101	C&ycles (#)
ELECTRODETYPE	SELECTOR	0	Electrode Type
STRIPPING	TOGGLE	F	Used for Stripping
POLARITY	TOGGLE	F	Signal Polarity
LINEFREQ	IQUANT	60	Line Frequency (Hz)
INTPERIOD	QUANT	3.3334E-005	Integration Period (s)
SEQUENCER	TOGGLE	TRUE	Run as Sequence
PSTATMODEL	IQUANT	4	Pstat Model
PSTATSECTION	LABEL	REF600-24079	Pstat Section
PSTATSERIALNO	LABEL	24079	Pstat Serial Number
CTRLMODE	IQUANT	1	Control Mode
ELECTROMETER	IQUANT	0	RE=0 or CS=1
IESTAB	IQUANT	2	I/E Stability
CASPEED	IQUANT	6	Control Amp Speed
CONVENTION	IQUANT	1	Current Convention
ICHRANGE	IQUANT	2	Ich Range
ICHRANGEMODE	TOGGLE	F	Ich Auto Range
ICHOFFSETENABLE	TOGGLE	F	Ich Offset Enable
ICHOFFSET	QUANT	0	Ich Offset (V)
ICHFILTER	IQUANT	2	Ich Filter
VCHRANGE	IQUANT	2	Vch Range
VCHRANGEMODE	TOGGLE	F	Vch Auto Range
VCHOFFSETENABLE	TOGGLE	F	Vch Offset Enable
VCHOFFSET	QUANT	0	Vch Offset (V)
VCHFILTER	IQUANT	2	Vch Filter
ACHRANGE	IQUANT	2	Ach Range
ACHOFFSETENABLE	TOGGLE	F	Ach Offset Enable
ACHOFFSET	QUANT	0	Ach Offset (V)
ACHFILTER	IQUANT	1	Ach Filter
IERANGELOWERLIMIT	IQUANT	1	I/E Range Lower Limit
IERANGEMODE	TOGGLE	F	I/E AutoRange
IERANGE	IQUANT	6	I/E Range
POSFEEDENABLE	TOGGLE	F	Positive Feedback IR Comp
POSFEEDRESISTANCE	QUANT	0	Positive Feedback Resistance (ohm)
ACHSELECT	IQUANT	0	Ach Select
SENSECABLEID	IQUANT	13	Sense Cable ID
PWRCABLEID	IQUANT	13	Power Cable ID
DCCALDATE	LABEL	6/30/2020	DC Calibration Date
ACCALDATE	LABEL	6/30/2020	AC Calibration Date
THERMOSELECT	IQUANT	1	Thermo Select
FRAMEWORKVERSION	LABEL	7.8.2	Framework Version
INSTRUMENTVERSION	LABEL	4.40	Instrument Version
CURVE	TABLE	101
	Pt	T	Vfwd	Vrev	Vstep	Ifwd	Irev	Idif	Sig	Ach	IERange	Over	Temp
	#	s	V	V	V	A	A	A	V	V	#	bits	deg C
	0	0.2	-3.24894E-001	-3.74888E-001	-3.49891E-001	-9.76437E-008	-1.61327E-007	6.36833E-008	-3.75000E-001	3.75789E-004	6	..........a	-327.68
	1	0.4	-3.22873E-001	-3.72889E-001	-3.47881E-001	-9.05734E-008	-1.57264E-007	6.66901E-008	-3.73000E-001	3.65373E-004	6	..........a	-327.68
	2	0.6	-3.20901E-001	-3.70796E-001	-3.45849E-001	-8.83327E-008	-1.54259E-007	6.59262E-008	-3.71000E-001	3.69623E-004	6	..........a	-327.68
	3	0.8	-3.18929E-001	-3.68941E-001	-3.43935E-001	-8.65626E-008	-1.51767E-007	6.52048E-008	-3.69000E-001	3.59373E-004	6	..........a	-327.68
	4	1	-3.16827E-001	-3.66932E-001	-3.41880E-001	-8.47830E-008	-1.49310E-007	6.45267E-008	-3.67000E-001	3.72623E-004	6	..........a	-327.68
	5	1.2	-3.14891E-001	-3.64900E-001	-3.39895E-001	-8.31205E-008	-1.46887E-007	6.37666E-008	-3.65000E-001	3.63706E-004	6	..........a	-327.68
	6	1.4	-3.12915E-001	-3.62826E-001	-3.37870E-001	-8.14700E-008	-1.44492E-007	6.30220E-008	-3.63000E-001	3.62039E-004	6	..........a	-327.68
	7	1.6	-3.10888E-001	-3.60883E-001	-3.35885E-001	-7.97959E-008	-1.41953E-007	6.21571E-008	-3.61000E-001	3.65456E-004	6	..........a	-327.68
	8	1.8	-3.08873E-001	-3.58888E-001	-3.33880E-001	-7.82214E-008	-1.39717E-007	6.14956E-008	-3.59000E-001	3.66706E-004	6	..........a	-327.68
	9	2	-3.06850E-001	-3.56867E-001	-3.31858E-001	-7.65655E-008	-1.37321E-007	6.07557E-008	-3.57000E-001	3.67039E-004	6	..........a	-327.68
	10	2.2	-3.04906E-001	-3.54842E-001	-3.29874E-001	-7.49605E-008	-1.35135E-007	6.01750E-008	-3.55000E-001	3.67706E-004	6	..........a	-327.68
	11	2.4	-3.02903E-001	-3.52898E-001	-3.27900E-001	-7.33461E-008	-1.32953E-007	5.96066E-008	-3.53000E-001	3.83373E-004	6	..........a	-327.68
	12	2.6	-3.00909E-001	-3.50890E-001	-3.25899E-001	-7.18197E-008	-1.30679E-007	5.88590E-008	-3.51000E-001	3.70206E-004	6	..........a	-327.68
	13	2.8	-2.98865E-001	-3.48895E-001	-3.23880E-001	-7.02757E-008	-1.28469E-007	5.81934E-008	-3.49000E-001	3.67289E-004	6	..........a	-327.68
	14	3	-2.96898E-001	-3.46881E-001	-3.21889E-001	-6.88257E-008	-1.26383E-007	5.75571E-008	-3.47000E-001	3.68373E-004	6	..........a	-327.68
	15	3.2	-2.94857E-001	-3.44970E-001	-3.19914E-001	-6.71595E-008	-1.24354E-007	5.71944E-008	-3.45000E-001	3.79456E-004	6	..........a	-327.68
	16	3.4	-2.92732E-001	-3.42899E-001	-3.17815E-001	-6.56786E-008	-1.22169E-007	5.64907E-008	-3.43000E-001	3.69873E-004	6	..........a	-327.68
	17	3.6	-2.90817E-001	-3.40916E-001	-3.15866E-001	-6.41399E-008	-1.20100E-007	5.59604E-008	-3.41000E-001	3.66373E-004	6	..........a	-327.68
	18	3.8	-2.88919E-001	-3.38843E-001	-3.13881E-001	-6.26524E-008	-1.18232E-007	5.55799E-008	-3.39000E-001	3.83123E-004	6	..........a	-327.68
	19	4	-2.86885E-001	-3.36895E-001	-3.11890E-001	-6.12317E-008	-1.16170E-007	5.49378E-008	-3.37000E-001	3.83206E-004	6	..........a	-327.68
	20	4.2	-2.84852E-001	-3.34901E-001	-3.09877E-001	-5.97590E-008	-1.14273E-007	5.45138E-008	-3.35000E-001	3.81706E-004	6	..........a	-327.68
	21	4.4	-2.82829E-001	-3.32853E-001	-3.07841E-001	-5.83887E-008	-1.12297E-007	5.39085E-008	-3.33000E-001	3.89623E-004	6	..........a	-327.68
	22	4.6	-2.80924E-001	-3.30825E-001	-3.05874E-001	-5.69152E-008	-1.10406E-007	5.34905E-008	-3.31000E-001	3.72373E-004	6	..........a	-327.68
	23	4.8	-2.78881E-001	-3.28899E-001	-3.03890E-001	-5.54831E-008	-1.08667E-007	5.31839E-008	-3.29000E-001	3.82873E-004	6	..........a	-327.68
	24	5	-2.76886E-001	-3.26886E-001	-3.01886E-001	-5.41415E-008	-1.06715E-007	5.25737E-008	-3.27000E-001	3.80373E-004	6	..........a	-327.68
	25	5.2	-2.74853E-001	-3.24892E-001	-2.99873E-001	-5.27045E-008	-1.04924E-007	5.22195E-008	-3.25000E-001	3.75123E-004	6	..........a	-327.68
	26	5.4	-2.72886E-001	-3.22870E-001	-2.97878E-001	-5.13570E-008	-1.03127E-007	5.17699E-008	-3.23000E-001	3.85289E-004	6	..........a	-327.68
	27	5.6	-2.70888E-001	-3.20901E-001	-2.95895E-001	-5.00998E-008	-1.01628E-007	5.15282E-008	-3.21000E-001	3.70206E-004	6	..........a	-327.68
	28	5.8	-2.68893E-001	-3.18918E-001	-2.93905E-001	-4.87295E-008	-9.98931E-008	5.11637E-008	-3.19000E-001	3.71123E-004	6	..........a	-327.68
	29	6	-2.66805E-001	-3.16842E-001	-2.91823E-001	-4.74935E-008	-9.83054E-008	5.08120E-008	-3.17000E-001	3.62123E-004	6	..........a	-327.68
	30	6.2	-2.64931E-001	-3.14894E-001	-2.89913E-001	-4.62775E-008	-9.66442E-008	5.03667E-008	-3.15000E-001	3.66206E-004	6	..........a	-327.68
	31	6.4	-2.62908E-001	-3.12924E-001	-2.87916E-001	-4.49103E-008	-9.50310E-008	5.01207E-008	-3.13000E-001	3.65539E-004	6	..........a	-327.68
	32	6.6	-2.60848E-001	-3.10899E-001	-2.85874E-001	-4.36658E-008	-9.35168E-008	4.98510E-008	-3.11000E-001	3.64956E-004	6	..........a	-327.68
	33	6.8	-2.58833E-001	-3.08829E-001	-2.83831E-001	-4.25077E-008	-9.19074E-008	4.93998E-008	-3.09000E-001	3.61123E-004	6	..........a	-327.68
	34	7	-2.56890E-001	-3.06852E-001	-2.81871E-001	-4.12428E-008	-9.04431E-008	4.92003E-008	-3.07000E-001	3.56706E-004	6	..........a	-327.68
	35	7.2	-2.54898E-001	-3.04897E-001	-2.79897E-001	-4.00193E-008	-8.89442E-008	4.89249E-008	-3.05000E-001	3.61956E-004	6	..........a	-327.68
	36	7.4	-2.52844E-001	-3.02920E-001	-2.77882E-001	-3.89560E-008	-8.74692E-008	4.85132E-008	-3.03000E-001	3.48706E-004	6	..........a	-327.68
	37	7.6	-2.50850E-001	-3.00902E-001	-2.75876E-001	-3.77734E-008	-8.60924E-008	4.83190E-008	-3.01000E-001	3.45373E-004	6	..........a	-327.68
	38	7.8	-2.48908E-001	-2.98874E-001	-2.73891E-001	-3.66376E-008	-8.46555E-008	4.80179E-008	-2.99000E-001	3.65206E-004	6	..........a	-327.68
	39	8	-2.46900E-001	-2.96908E-001	-2.71904E-001	-3.56033E-008	-8.32803E-008	4.76771E-008	-2.97000E-001	3.54039E-004	6	..........a	-327.68
	40	8.2	-2.44897E-001	-2.94875E-001	-2.69886E-001	-3.44843E-008	-8.19440E-008	4.74597E-008	-2.95000E-001	3.45873E-004	6	..........a	-327.68
	41	8.4	-2.42803E-001	-2.92782E-001	-2.67793E-001	-3.35782E-008	-8.05198E-008	4.69416E-008	-2.93000E-001	3.54873E-004	6	..........a	-327.68
	42	8.6	-2.40920E-001	-2.90823E-001	-2.65871E-001	-3.25996E-008	-7.92377E-008	4.66381E-008	-2.91000E-001	3.59123E-004	6	..........a	-327.68
	43	8.8	-2.38946E-001	-2.88931E-001	-2.63939E-001	-3.15118E-008	-7.79033E-008	4.63916E-008	-2.89000E-001	3.70289E-004	6	..........a	-327.68
	44	9	-2.36894E-001	-2.86899E-001	-2.61896E-001	-3.05810E-008	-7.66740E-008	4.60930E-008	-2.87000E-001	3.68623E-004	6	..........a	-327.68
	45	9.2	-2.34831E-001	-2.84879E-001	-2.59855E-001	-2.96160E-008	-7.53443E-008	4.57283E-008	-2.85000E-001	3.70789E-004	6	..........a	-327.68
	46	9.4	-2.32882E-001	-2.82827E-001	-2.57854E-001	-2.87301E-008	-7.42137E-008	4.54836E-008	-2.83000E-001	3.69623E-004	6	..........a	-327.68
	47	9.6	-2.30890E-001	-2.80943E-001	-2.55917E-001	-2.77529E-008	-7.28480E-008	4.50951E-008	-2.81000E-001	3.71539E-004	6	..........a	-327.68
	48	9.8	-2.28850E-001	-2.78893E-001	-2.53872E-001	-2.68940E-008	-7.16705E-008	4.47765E-008	-2.79000E-001	3.68456E-004	6	..........a	-327.68
	49	10	-2.26842E-001	-2.76907E-001	-2.51874E-001	-2.60536E-008	-7.04904E-008	4.44368E-008	-2.77000E-001	3.59206E-004	6	..........a	-327.68
	50	10.2	-2.24889E-001	-2.74865E-001	-2.49877E-001	-2.50758E-008	-6.92114E-008	4.41356E-008	-2.75000E-001	3.60289E-004	6	..........a	-327.68
	51	10.4	-2.22902E-001	-2.72898E-001	-2.47900E-001	-2.44310E-008	-6.80857E-008	4.36547E-008	-2.73000E-001	3.68706E-004	6	..........a	-327.68
	52	10.6	-2.20894E-001	-2.70874E-001	-2.45884E-001	-2.36109E-008	-6.68569E-008	4.32460E-008	-2.71000E-001	3.79539E-004	6	..........a	-327.68
	53	10.8	-2.18883E-001	-2.68880E-001	-2.43881E-001	-2.28275E-008	-6.56483E-008	4.28208E-008	-2.69000E-001	3.80206E-004	6	..........a	-327.68
	54	11	-2.16956E-001	-2.66797E-001	-2.41877E-001	-2.20032E-008	-6.44481E-008	4.24449E-008	-2.67000E-001	3.67539E-004	6	..........a	-327.68
	55	11.2	-2.14919E-001	-2.64929E-001	-2.39924E-001	-2.12204E-008	-6.33400E-008	4.21195E-008	-2.65000E-001	3.70873E-004	6	..........a	-327.68
	56	11.4	-2.12887E-001	-2.62875E-001	-2.37881E-001	-2.05210E-008	-6.22560E-008	4.17350E-008	-2.63000E-001	3.73956E-004	6	..........a	-327.68
	57	11.6	-2.10870E-001	-2.60856E-001	-2.35863E-001	-1.97614E-008	-6.10520E-008	4.12906E-008	-2.61000E-001	3.84456E-004	6	..........a	-327.68
	58	11.8	-2.08894E-001	-2.58837E-001	-2.33865E-001	-1.89705E-008	-5.98955E-008	4.09250E-008	-2.59000E-001	3.80706E-004	6	..........a	-327.68
	59	12	-2.06904E-001	-2.56890E-001	-2.31897E-001	-1.81991E-008	-5.88189E-008	4.06198E-008	-2.57000E-001	3.76456E-004	6	..........a	-327.68
	60	12.2	-2.04858E-001	-2.54893E-001	-2.29876E-001	-1.75985E-008	-5.77418E-008	4.01433E-008	-2.55000E-001	3.81873E-004	6	..........a	-327.68
	61	12.4	-2.02835E-001	-2.52889E-001	-2.27862E-001	-1.68741E-008	-5.65913E-008	3.97172E-008	-2.53000E-001	3.83039E-004	6	..........a	-327.68
	62	12.6	-2.00907E-001	-2.50862E-001	-2.25884E-001	-1.60725E-008	-5.55475E-008	3.94750E-008	-2.51000E-001	3.83706E-004	6	..........a	-327.68
	63	12.8	-1.98904E-001	-2.48896E-001	-2.23900E-001	-1.54711E-008	-5.45065E-008	3.90355E-008	-2.49000E-001	3.66373E-004	6	..........a	-327.68
	64	13	-1.96888E-001	-2.46871E-001	-2.21880E-001	-1.47156E-008	-5.34224E-008	3.87068E-008	-2.47000E-001	3.76873E-004	6	..........a	-327.68
	65	13.2	-1.94874E-001	-2.44883E-001	-2.19878E-001	-1.41102E-008	-5.24443E-008	3.83340E-008	-2.45000E-001	3.76289E-004	6	..........a	-327.68
	66	13.4	-1.92899E-001	-2.42805E-001	-2.17852E-001	-1.35020E-008	-5.15261E-008	3.80242E-008	-2.43000E-001	3.70706E-004	6	..........a	-327.68
	67	13.6	-1.90936E-001	-2.40939E-001	-2.15938E-001	-1.27715E-008	-5.05877E-008	3.78162E-008	-2.41000E-001	3.68373E-004	6	..........a	-327.68
	68	13.8	-1.88730E-001	-2.38904E-001	-2.13817E-001	-1.21225E-008	-4.96534E-008	3.75309E-008	-2.39000E-001	3.60789E-004	6	..........a	-327.68
	69	14	-1.86833E-001	-2.36908E-001	-2.11870E-001	-1.16099E-008	-4.87184E-008	3.71086E-008	-2.37000E-001	3.69873E-004	6	..........a	-327.68
	70	14.2	-1.84917E-001	-2.34828E-001	-2.09873E-001	-1.09351E-008	-4.77222E-008	3.67870E-008	-2.35000E-001	3.65039E-004	6	..........a	-327.68
	71	14.4	-1.82894E-001	-2.32888E-001	-2.07891E-001	-1.03882E-008	-4.67732E-008	3.63850E-008	-2.33000E-001	3.75123E-004	6	..........a	-327.68
	72	14.6	-1.80826E-001	-2.30892E-001	-2.05859E-001	-9.70315E-009	-4.59994E-008	3.62963E-008	-2.31000E-001	3.76456E-004	6	..........a	-327.68
	73	14.8	-1.78828E-001	-2.28861E-001	-2.03845E-001	-9.06107E-009	-4.52075E-008	3.61464E-008	-2.29000E-001	3.62539E-004	6	..........a	-327.68
	74	15	-1.76904E-001	-2.26839E-001	-2.01871E-001	-8.60334E-009	-4.42312E-008	3.56279E-008	-2.27000E-001	3.66123E-004	6	..........a	-327.68
	75	15.2	-1.74897E-001	-2.24899E-001	-1.99898E-001	-8.10278E-009	-4.34098E-008	3.53070E-008	-2.25000E-001	3.69873E-004	6	..........a	-327.68
	76	15.4	-1.72886E-001	-2.22892E-001	-1.97889E-001	-7.53621E-009	-4.25948E-008	3.50586E-008	-2.23000E-001	3.53873E-004	6	..........a	-327.68
	77	15.6	-1.70855E-001	-2.20898E-001	-1.95876E-001	-6.88479E-009	-4.17982E-008	3.49134E-008	-2.21000E-001	3.68956E-004	6	..........a	-327.68
	78	15.8	-1.68898E-001	-2.18878E-001	-1.93888E-001	-6.37423E-009	-4.10201E-008	3.46459E-008	-2.19000E-001	3.50539E-004	6	..........a	-327.68
	79	16	-1.66876E-001	-2.16951E-001	-1.91914E-001	-5.89667E-009	-4.01360E-008	3.42394E-008	-2.17000E-001	3.61873E-004	6	..........a	-327.68
	80	16.2	-1.64761E-001	-2.14904E-001	-1.89833E-001	-5.39394E-009	-3.94271E-008	3.40332E-008	-2.15000E-001	3.69373E-004	6	..........a	-327.68
	81	16.4	-1.62823E-001	-2.12831E-001	-1.87827E-001	-4.98905E-009	-3.86345E-008	3.36454E-008	-2.13000E-001	3.69789E-004	6	..........a	-327.68
	82	16.6	-1.60917E-001	-2.10867E-001	-1.85892E-001	-4.33430E-009	-3.79814E-008	3.36471E-008	-2.11000E-001	3.52373E-004	6	..........a	-327.68
	83	16.8	-1.58904E-001	-2.08893E-001	-1.83898E-001	-3.83390E-009	-3.72437E-008	3.34098E-008	-2.09000E-001	3.65373E-004	6	..........a	-327.68
	84	17	-1.56844E-001	-2.06901E-001	-1.81872E-001	-3.35684E-009	-3.66356E-008	3.32787E-008	-2.07000E-001	3.69706E-004	6	..........a	-327.68
	85	17.2	-1.54829E-001	-2.04846E-001	-1.79837E-001	-2.91179E-009	-3.58925E-008	3.29807E-008	-2.05000E-001	3.60039E-004	6	..........a	-327.68
	86	17.4	-1.52925E-001	-2.02837E-001	-1.77881E-001	-2.41972E-009	-3.52376E-008	3.28178E-008	-2.03000E-001	3.57456E-004	6	..........a	-327.68
	87	17.6	-1.50899E-001	-2.00903E-001	-1.75901E-001	-1.88949E-009	-3.45938E-008	3.27043E-008	-2.01000E-001	3.69539E-004	6	..........a	-327.68
	88	17.8	-1.48883E-001	-1.98908E-001	-1.73896E-001	-1.40343E-009	-3.39009E-008	3.24975E-008	-1.99000E-001	3.65289E-004	6	..........a	-327.68
	89	18	-1.46855E-001	-1.96893E-001	-1.71874E-001	-9.79541E-010	-3.32545E-008	3.22749E-008	-1.97000E-001	3.61789E-004	6	..........a	-327.68
	90	18.2	-1.44889E-001	-1.94873E-001	-1.69881E-001	-4.97980E-010	-3.25521E-008	3.20541E-008	-1.95000E-001	3.69789E-004	6	..........a	-327.68
	91	18.4	-1.42886E-001	-1.92903E-001	-1.67894E-001	-7.07590E-011	-3.19386E-008	3.18679E-008	-1.93000E-001	3.71873E-004	6	..........a	-327.68
	92	18.6	-1.40884E-001	-1.90929E-001	-1.65906E-001	4.44807E-010	-3.13251E-008	3.17699E-008	-1.91000E-001	3.56956E-004	6	..........a	-327.68
	93	18.8	-1.38793E-001	-1.88796E-001	-1.63795E-001	7.87850E-010	-3.07747E-008	3.15625E-008	-1.89000E-001	3.57706E-004	6	..........a	-327.68
	94	19	-1.36914E-001	-1.86844E-001	-1.61879E-001	1.14390E-009	-3.01779E-008	3.13218E-008	-1.87000E-001	3.55123E-004	6	..........a	-327.68
	95	19.2	-1.34915E-001	-1.84915E-001	-1.59915E-001	1.49394E-009	-2.97415E-008	3.12355E-008	-1.85000E-001	3.48373E-004	6	..........a	-327.68
	96	19.4	-1.32802E-001	-1.82896E-001	-1.57849E-001	1.78964E-009	-2.90631E-008	3.08528E-008	-1.83000E-001	3.52206E-004	6	..........a	-327.68
	97	19.6	-1.30815E-001	-1.80853E-001	-1.55834E-001	2.28187E-009	-2.87397E-008	3.10216E-008	-1.81000E-001	3.57456E-004	6	..........a	-327.68
	98	19.8	-1.28882E-001	-1.78834E-001	-1.53858E-001	2.61175E-009	-2.80897E-008	3.07014E-008	-1.79000E-001	3.52206E-004	6	..........a	-327.68
	99	20	-1.26891E-001	-1.76900E-001	-1.51895E-001	3.06547E-009	-2.74404E-008	3.05059E-008	-1.77000E-001	3.61206E-004	6	..........a	-327.68
	100	20.2	-1.24864E-001	-1.74897E-001	-1.49881E-001	3.40902E-009	-2.69925E-008	3.04015E-008	-1.75000E-001	3.45206E-004	6	..........a	-327.68
