EXPLAIN
TAG	SQUARE_WAVE
TITLE	LABEL	Square Wave Voltammetry	Test Identifier
DATE	LABEL	8/10/2020	Date
TIME	LABEL	16:38:24	Time
NOTES	NOTES	1	Notes...
	 STD2 1 fg/mL 08102
PSTAT	PSTAT	REF600-24079	Potentiostat
VINIT	QUANT	-3.50000E-001	Initial E (V)
VFINAL	QUANT	-1.50000E-001	Final E (V)
STEPSIZE	QUANT	2.00000E+000	Step Size (mV)
TIMERRES	QUANT	3.33340E-005	&Timer Resolution
FREQUENCY	QUANT	1.00000E+001	Frequency (Hz)
PULSESIZE	QUANT	2.50000E+001	Pulse Size E (mV)
PULSEON	QUANT	1.00000E-001	Pulse &Time (s)
NOISEREJECT	TOGGLE	F	Noise Rejection
AREA	QUANT	2.00000E-002	Sample Area (cm^2)
IMODE	SELECTOR	1	I/E Range Mode
IRANGE	QUANT	1.00000E-003	Max Current (mA)
EQDELAY	IQUANT	10	Equil. Time (s)
IRCOMP	SELECTOR	0	IRComp
PFCOR	QUANT	5.00000E+001	PF Corr. (ohm)
CYCLES	IQUANT	101	C&ycles (#)
ELECTRODETYPE	SELECTOR	0	Electrode Type
STRIPPING	TOGGLE	F	Used for Stripping
POLARITY	TOGGLE	F	Signal Polarity
LINEFREQ	IQUANT	60	Line Frequency (Hz)
INTPERIOD	QUANT	3.3334E-005	Integration Period (s)
SEQUENCER	TOGGLE	TRUE	Run as Sequence
PSTATMODEL	IQUANT	4	Pstat Model
PSTATSECTION	LABEL	REF600-24079	Pstat Section
PSTATSERIALNO	LABEL	24079	Pstat Serial Number
CTRLMODE	IQUANT	1	Control Mode
ELECTROMETER	IQUANT	0	RE=0 or CS=1
IESTAB	IQUANT	2	I/E Stability
CASPEED	IQUANT	6	Control Amp Speed
CONVENTION	IQUANT	1	Current Convention
ICHRANGE	IQUANT	2	Ich Range
ICHRANGEMODE	TOGGLE	F	Ich Auto Range
ICHOFFSETENABLE	TOGGLE	F	Ich Offset Enable
ICHOFFSET	QUANT	0	Ich Offset (V)
ICHFILTER	IQUANT	2	Ich Filter
VCHRANGE	IQUANT	2	Vch Range
VCHRANGEMODE	TOGGLE	F	Vch Auto Range
VCHOFFSETENABLE	TOGGLE	F	Vch Offset Enable
VCHOFFSET	QUANT	0	Vch Offset (V)
VCHFILTER	IQUANT	2	Vch Filter
ACHRANGE	IQUANT	2	Ach Range
ACHOFFSETENABLE	TOGGLE	F	Ach Offset Enable
ACHOFFSET	QUANT	0	Ach Offset (V)
ACHFILTER	IQUANT	1	Ach Filter
IERANGELOWERLIMIT	IQUANT	1	I/E Range Lower Limit
IERANGEMODE	TOGGLE	F	I/E AutoRange
IERANGE	IQUANT	6	I/E Range
POSFEEDENABLE	TOGGLE	F	Positive Feedback IR Comp
POSFEEDRESISTANCE	QUANT	0	Positive Feedback Resistance (ohm)
ACHSELECT	IQUANT	0	Ach Select
SENSECABLEID	IQUANT	13	Sense Cable ID
PWRCABLEID	IQUANT	13	Power Cable ID
DCCALDATE	LABEL	6/30/2020	DC Calibration Date
ACCALDATE	LABEL	6/30/2020	AC Calibration Date
THERMOSELECT	IQUANT	1	Thermo Select
FRAMEWORKVERSION	LABEL	7.8.2	Framework Version
INSTRUMENTVERSION	LABEL	4.40	Instrument Version
CURVE	TABLE	101
	Pt	T	Vfwd	Vrev	Vstep	Ifwd	Irev	Idif	Sig	Ach	IERange	Over	Temp
	#	s	V	V	V	A	A	A	V	V	#	bits	deg C
	0	0.1	-3.24885E-001	-3.74881E-001	-3.49883E-001	-9.35980E-008	-1.65514E-007	7.19165E-008	-3.75000E-001	3.98706E-004	6	..........a	-327.68
	1	0.2	-3.22849E-001	-3.72887E-001	-3.47868E-001	-8.00249E-008	-1.59304E-007	7.92791E-008	-3.73000E-001	4.12539E-004	6	..........a	-327.68
	2	0.3	-3.20865E-001	-3.70773E-001	-3.45819E-001	-7.66112E-008	-1.55640E-007	7.90287E-008	-3.71000E-001	4.00539E-004	6	..........a	-327.68
	3	0.4	-3.18899E-001	-3.68951E-001	-3.43925E-001	-7.43409E-008	-1.53047E-007	7.87057E-008	-3.69000E-001	3.87873E-004	6	..........a	-327.68
	4	0.5	-3.16849E-001	-3.66910E-001	-3.41880E-001	-7.27433E-008	-1.50385E-007	7.76415E-008	-3.67000E-001	4.00706E-004	6	..........a	-327.68
	5	0.6	-3.14868E-001	-3.64912E-001	-3.39890E-001	-7.07998E-008	-1.47914E-007	7.71141E-008	-3.65000E-001	3.98039E-004	6	..........a	-327.68
	6	0.7	-3.12891E-001	-3.62822E-001	-3.37856E-001	-6.91859E-008	-1.45483E-007	7.62974E-008	-3.63000E-001	4.05206E-004	6	..........a	-327.68
	7	0.8	-3.10850E-001	-3.60870E-001	-3.35860E-001	-6.75183E-008	-1.43370E-007	7.58520E-008	-3.61000E-001	4.11206E-004	6	..........a	-327.68
	8	0.9	-3.08834E-001	-3.58872E-001	-3.33853E-001	-6.56794E-008	-1.40975E-007	7.52956E-008	-3.59000E-001	3.99039E-004	6	..........a	-327.68
	9	1	-3.06814E-001	-3.56879E-001	-3.31846E-001	-6.42993E-008	-1.38691E-007	7.43918E-008	-3.57000E-001	3.89373E-004	6	..........a	-327.68
	10	1.1	-3.04877E-001	-3.54833E-001	-3.29855E-001	-6.26137E-008	-1.36661E-007	7.40471E-008	-3.55000E-001	4.00873E-004	6	..........a	-327.68
	11	1.2	-3.02869E-001	-3.52904E-001	-3.27887E-001	-6.11499E-008	-1.34258E-007	7.31086E-008	-3.53000E-001	3.99873E-004	6	..........a	-327.68
	12	1.3	-3.00876E-001	-3.50881E-001	-3.25879E-001	-5.96993E-008	-1.32216E-007	7.25169E-008	-3.51000E-001	4.00539E-004	6	..........a	-327.68
	13	1.4	-2.98838E-001	-3.48882E-001	-3.23860E-001	-5.79931E-008	-1.30414E-007	7.24209E-008	-3.49000E-001	4.00873E-004	6	..........a	-327.68
	14	1.5	-2.96871E-001	-3.46865E-001	-3.21868E-001	-5.66996E-008	-1.28199E-007	7.14994E-008	-3.47000E-001	4.02206E-004	6	..........a	-327.68
	15	1.6	-2.94853E-001	-3.44950E-001	-3.19901E-001	-5.51398E-008	-1.26230E-007	7.10904E-008	-3.45000E-001	4.16206E-004	6	..........a	-327.68
	16	1.7	-2.92805E-001	-3.42864E-001	-3.17834E-001	-5.35542E-008	-1.24268E-007	7.07140E-008	-3.43000E-001	4.07039E-004	6	..........a	-327.68
	17	1.8	-2.90789E-001	-3.40916E-001	-3.15852E-001	-5.23464E-008	-1.22384E-007	7.00379E-008	-3.41000E-001	4.10039E-004	6	..........a	-327.68
	18	1.9	-2.88902E-001	-3.38826E-001	-3.13864E-001	-5.07259E-008	-1.20591E-007	6.98655E-008	-3.39000E-001	4.08039E-004	6	..........a	-327.68
	19	2	-2.86855E-001	-3.36889E-001	-3.11872E-001	-4.92107E-008	-1.18606E-007	6.93952E-008	-3.37000E-001	4.17206E-004	6	..........a	-327.68
	20	2.1	-2.84849E-001	-3.34877E-001	-3.09863E-001	-4.78315E-008	-1.16854E-007	6.90224E-008	-3.35000E-001	4.08873E-004	6	..........a	-327.68
	21	2.2	-2.82809E-001	-3.32836E-001	-3.07822E-001	-4.66334E-008	-1.15080E-007	6.84467E-008	-3.33000E-001	4.06039E-004	6	..........a	-327.68
	22	2.3	-2.80922E-001	-3.30818E-001	-3.05870E-001	-4.52215E-008	-1.13375E-007	6.81533E-008	-3.31000E-001	4.01539E-004	6	..........a	-327.68
	23	2.4	-2.78872E-001	-3.28887E-001	-3.03879E-001	-4.37093E-008	-1.11664E-007	6.79546E-008	-3.29000E-001	4.04039E-004	6	..........a	-327.68
	24	2.5	-2.76874E-001	-3.26889E-001	-3.01881E-001	-4.23751E-008	-1.10253E-007	6.78776E-008	-3.27000E-001	4.06873E-004	6	..........a	-327.68
	25	2.6	-2.74833E-001	-3.24876E-001	-2.99855E-001	-4.11977E-008	-1.08177E-007	6.69795E-008	-3.25000E-001	4.01373E-004	6	..........a	-327.68
	26	2.7	-2.72879E-001	-3.22855E-001	-2.97867E-001	-3.96208E-008	-1.06722E-007	6.71009E-008	-3.23000E-001	3.97873E-004	6	..........a	-327.68
	27	2.8	-2.70884E-001	-3.20878E-001	-2.95881E-001	-3.84206E-008	-1.05141E-007	6.67201E-008	-3.21000E-001	4.13039E-004	6	..........a	-327.68
	28	2.9	-2.68885E-001	-3.18882E-001	-2.93883E-001	-3.70381E-008	-1.03651E-007	6.66128E-008	-3.19000E-001	4.08373E-004	6	..........a	-327.68
	29	3	-2.66778E-001	-3.16846E-001	-2.91812E-001	-3.57706E-008	-1.02166E-007	6.63954E-008	-3.17000E-001	3.92373E-004	6	..........a	-327.68
	30	3.1	-2.64885E-001	-3.14887E-001	-2.89886E-001	-3.41454E-008	-1.00903E-007	6.67575E-008	-3.15000E-001	3.91373E-004	6	..........a	-327.68
	31	3.2	-2.62900E-001	-3.12908E-001	-2.87904E-001	-3.31293E-008	-9.95011E-008	6.63718E-008	-3.13000E-001	3.98373E-004	6	..........a	-327.68
	32	3.3	-2.60831E-001	-3.10882E-001	-2.85857E-001	-3.18141E-008	-9.81139E-008	6.62998E-008	-3.11000E-001	3.93873E-004	6	..........a	-327.68
	33	3.4	-2.58812E-001	-3.08871E-001	-2.83841E-001	-3.05056E-008	-9.67297E-008	6.62241E-008	-3.09000E-001	3.88873E-004	6	..........a	-327.68
	34	3.5	-2.56855E-001	-3.06828E-001	-2.81841E-001	-2.91891E-008	-9.54089E-008	6.62198E-008	-3.07000E-001	3.83039E-004	6	..........a	-327.68
	35	3.6	-2.54896E-001	-3.04904E-001	-2.79900E-001	-2.83237E-008	-9.38887E-008	6.55650E-008	-3.05000E-001	3.93206E-004	6	..........a	-327.68
	36	3.7	-2.52866E-001	-3.02903E-001	-2.77884E-001	-2.71075E-008	-9.28069E-008	6.56994E-008	-3.03000E-001	3.93539E-004	6	..........a	-327.68
	37	3.8	-2.50833E-001	-3.00896E-001	-2.75864E-001	-2.59997E-008	-9.13147E-008	6.53150E-008	-3.01000E-001	3.84706E-004	6	..........a	-327.68
	38	3.9	-2.48881E-001	-2.98844E-001	-2.73863E-001	-2.48496E-008	-9.00985E-008	6.52490E-008	-2.99000E-001	4.04206E-004	6	..........a	-327.68
	39	4	-2.46868E-001	-2.96908E-001	-2.71888E-001	-2.37141E-008	-8.89767E-008	6.52626E-008	-2.97000E-001	3.81706E-004	6	..........a	-327.68
	40	4.1	-2.44876E-001	-2.94899E-001	-2.69888E-001	-2.25756E-008	-8.75079E-008	6.49323E-008	-2.95000E-001	4.06706E-004	6	..........a	-327.68
	41	4.2	-2.42778E-001	-2.92798E-001	-2.67788E-001	-2.17005E-008	-8.62057E-008	6.45052E-008	-2.93000E-001	4.02206E-004	6	..........a	-327.68
	42	4.3	-2.40912E-001	-2.90818E-001	-2.65865E-001	-2.07351E-008	-8.48809E-008	6.41458E-008	-2.91000E-001	3.95039E-004	6	..........a	-327.68
	43	4.4	-2.38909E-001	-2.88921E-001	-2.63915E-001	-1.97566E-008	-8.39661E-008	6.42095E-008	-2.89000E-001	4.03039E-004	6	..........a	-327.68
	44	4.5	-2.36872E-001	-2.86881E-001	-2.61877E-001	-1.88315E-008	-8.26073E-008	6.37758E-008	-2.87000E-001	3.94206E-004	6	..........a	-327.68
	45	4.6	-2.34802E-001	-2.84854E-001	-2.59828E-001	-1.78047E-008	-8.15895E-008	6.37848E-008	-2.85000E-001	4.07539E-004	6	..........a	-327.68
	46	4.7	-2.32853E-001	-2.82815E-001	-2.57834E-001	-1.69542E-008	-8.03316E-008	6.33774E-008	-2.83000E-001	4.04873E-004	6	..........a	-327.68
	47	4.8	-2.30867E-001	-2.80914E-001	-2.55891E-001	-1.62188E-008	-7.92468E-008	6.30280E-008	-2.81000E-001	4.02539E-004	6	..........a	-327.68
	48	4.9	-2.28807E-001	-2.78876E-001	-2.53841E-001	-1.53340E-008	-7.81467E-008	6.28127E-008	-2.79000E-001	4.12873E-004	6	..........a	-327.68
	49	5	-2.26809E-001	-2.76885E-001	-2.51847E-001	-1.44323E-008	-7.68769E-008	6.24446E-008	-2.77000E-001	4.01873E-004	6	..........a	-327.68
	50	5.1	-2.24874E-001	-2.74853E-001	-2.49864E-001	-1.37352E-008	-7.58891E-008	6.21539E-008	-2.75000E-001	4.10706E-004	6	..........a	-327.68
	51	5.2	-2.22880E-001	-2.72879E-001	-2.47880E-001	-1.28597E-008	-7.45656E-008	6.17058E-008	-2.73000E-001	4.14539E-004	6	..........a	-327.68
	52	5.3	-2.20859E-001	-2.70875E-001	-2.45867E-001	-1.21273E-008	-7.36048E-008	6.14775E-008	-2.71000E-001	4.17206E-004	6	..........a	-327.68
	53	5.4	-2.18857E-001	-2.68889E-001	-2.43873E-001	-1.15175E-008	-7.23076E-008	6.07901E-008	-2.69000E-001	4.08206E-004	6	..........a	-327.68
	54	5.5	-2.16927E-001	-2.66779E-001	-2.41853E-001	-1.07718E-008	-7.13442E-008	6.05724E-008	-2.67000E-001	4.02206E-004	6	..........a	-327.68
	55	5.6	-2.14877E-001	-2.64927E-001	-2.39902E-001	-9.99969E-009	-6.99607E-008	5.99610E-008	-2.65000E-001	4.08706E-004	6	..........a	-327.68
	56	5.7	-2.12851E-001	-2.62883E-001	-2.37867E-001	-9.46462E-009	-6.88725E-008	5.94079E-008	-2.63000E-001	4.07039E-004	6	..........a	-327.68
	57	5.8	-2.10826E-001	-2.60870E-001	-2.35848E-001	-8.70852E-009	-6.77344E-008	5.90258E-008	-2.61000E-001	4.24706E-004	6	..........a	-327.68
	58	5.9	-2.08869E-001	-2.58809E-001	-2.33839E-001	-8.02077E-009	-6.66319E-008	5.86111E-008	-2.59000E-001	3.99539E-004	6	..........a	-327.68
	59	6	-2.06880E-001	-2.56874E-001	-2.31877E-001	-7.43936E-009	-6.56681E-008	5.82287E-008	-2.57000E-001	4.11206E-004	6	..........a	-327.68
	60	6.1	-2.04818E-001	-2.54889E-001	-2.29854E-001	-6.61426E-009	-6.43176E-008	5.77033E-008	-2.55000E-001	4.11873E-004	6	..........a	-327.68
	61	6.2	-2.02820E-001	-2.52838E-001	-2.27829E-001	-5.95517E-009	-6.34465E-008	5.74913E-008	-2.53000E-001	4.02706E-004	6	..........a	-327.68
	62	6.3	-2.00879E-001	-2.50842E-001	-2.25861E-001	-5.45611E-009	-6.23367E-008	5.68806E-008	-2.51000E-001	4.06706E-004	6	..........a	-327.68
	63	6.4	-1.98881E-001	-2.48866E-001	-2.23874E-001	-4.80736E-009	-6.11159E-008	5.63085E-008	-2.49000E-001	4.05539E-004	6	..........a	-327.68
	64	6.5	-1.96869E-001	-2.46856E-001	-2.21863E-001	-4.24329E-009	-6.02581E-008	5.60148E-008	-2.47000E-001	3.95373E-004	6	..........a	-327.68
	65	6.6	-1.94862E-001	-2.44862E-001	-2.19862E-001	-3.43619E-009	-5.90186E-008	5.55824E-008	-2.45000E-001	3.98539E-004	6	..........a	-327.68
	66	6.7	-1.92892E-001	-2.42796E-001	-2.17844E-001	-2.77844E-009	-5.79435E-008	5.51650E-008	-2.43000E-001	4.05039E-004	6	..........a	-327.68
	67	6.8	-1.90894E-001	-2.40916E-001	-2.15905E-001	-2.36005E-009	-5.71167E-008	5.47566E-008	-2.41000E-001	4.10373E-004	6	..........a	-327.68
	68	6.9	-1.88821E-001	-2.38873E-001	-2.13847E-001	-1.49327E-009	-5.62642E-008	5.47710E-008	-2.39000E-001	4.04873E-004	6	..........a	-327.68
	69	7	-1.86815E-001	-2.36871E-001	-2.11843E-001	-8.10186E-010	-5.51748E-008	5.43646E-008	-2.37000E-001	4.00206E-004	6	..........a	-327.68
	70	7.1	-1.84897E-001	-2.34803E-001	-2.09850E-001	-3.97134E-010	-5.42757E-008	5.38785E-008	-2.35000E-001	3.98039E-004	6	..........a	-327.68
	71	7.2	-1.82871E-001	-2.32857E-001	-2.07864E-001	9.12616E-011	-5.33926E-008	5.34838E-008	-2.33000E-001	4.00873E-004	6	..........a	-327.68
	72	7.3	-1.80832E-001	-2.30856E-001	-2.05844E-001	6.83337E-010	-5.23651E-008	5.30484E-008	-2.31000E-001	4.02373E-004	6	..........a	-327.68
	73	7.4	-1.78802E-001	-2.28862E-001	-2.03832E-001	1.19107E-009	-5.15170E-008	5.27080E-008	-2.29000E-001	3.99706E-004	6	..........a	-327.68
	74	7.5	-1.76860E-001	-2.26818E-001	-2.01839E-001	1.81481E-009	-5.06002E-008	5.24150E-008	-2.27000E-001	3.74206E-004	6	..........a	-327.68
	75	7.6	-1.74880E-001	-2.24879E-001	-1.99879E-001	2.42689E-009	-4.99311E-008	5.23580E-008	-2.25000E-001	3.91206E-004	6	..........a	-327.68
	76	7.7	-1.72876E-001	-2.22884E-001	-1.97880E-001	2.90629E-009	-4.90203E-008	5.19266E-008	-2.23000E-001	4.05206E-004	6	..........a	-327.68
	77	7.8	-1.70846E-001	-2.20881E-001	-1.95864E-001	3.17365E-009	-4.82619E-008	5.14355E-008	-2.21000E-001	3.87539E-004	6	..........a	-327.68
	78	7.9	-1.68890E-001	-2.18868E-001	-1.93879E-001	3.94409E-009	-4.75575E-008	5.15016E-008	-2.19000E-001	3.79706E-004	6	..........a	-327.68
	79	8	-1.66901E-001	-2.16960E-001	-1.91931E-001	4.43515E-009	-4.66854E-008	5.11205E-008	-2.17000E-001	3.80706E-004	6	..........a	-327.68
	80	8.1	-1.64772E-001	-2.14859E-001	-1.89815E-001	4.89654E-009	-4.58663E-008	5.07628E-008	-2.15000E-001	3.81873E-004	6	..........a	-327.68
	81	8.2	-1.62796E-001	-2.12906E-001	-1.87851E-001	5.37527E-009	-4.54135E-008	5.07888E-008	-2.13000E-001	3.83873E-004	6	..........a	-327.68
	82	8.3	-1.60924E-001	-2.10847E-001	-1.85885E-001	5.85066E-009	-4.45624E-008	5.04131E-008	-2.11000E-001	3.76206E-004	6	..........a	-327.68
	83	8.4	-1.58873E-001	-2.08868E-001	-1.83870E-001	6.43574E-009	-4.36863E-008	5.01220E-008	-2.09000E-001	3.85206E-004	6	..........a	-327.68
	84	8.5	-1.56827E-001	-2.06884E-001	-1.81855E-001	6.85579E-009	-4.31942E-008	5.00500E-008	-2.07000E-001	3.81039E-004	6	..........a	-327.68
	85	8.6	-1.54798E-001	-2.04846E-001	-1.79822E-001	7.44153E-009	-4.25055E-008	4.99470E-008	-2.05000E-001	3.88206E-004	6	..........a	-327.68
	86	8.7	-1.52898E-001	-2.02827E-001	-1.77862E-001	7.93393E-009	-4.17074E-008	4.96413E-008	-2.03000E-001	3.62373E-004	6	..........a	-327.68
	87	8.8	-1.50902E-001	-2.00893E-001	-1.75897E-001	8.23230E-009	-4.09406E-008	4.91729E-008	-2.01000E-001	3.85373E-004	6	..........a	-327.68
	88	8.9	-1.48858E-001	-1.98889E-001	-1.73873E-001	8.61201E-009	-4.04266E-008	4.90386E-008	-1.99000E-001	3.81373E-004	6	..........a	-327.68
	89	9	-1.46827E-001	-1.96871E-001	-1.71849E-001	9.44445E-009	-3.96235E-008	4.90679E-008	-1.97000E-001	3.93873E-004	6	..........a	-327.68
	90	9.1	-1.44877E-001	-1.94849E-001	-1.69863E-001	9.80116E-009	-3.89744E-008	4.87755E-008	-1.95000E-001	3.79873E-004	6	..........a	-327.68
	91	9.2	-1.42906E-001	-1.92887E-001	-1.67896E-001	1.00909E-008	-3.84643E-008	4.85552E-008	-1.93000E-001	3.78206E-004	6	..........a	-327.68
	92	9.3	-1.40896E-001	-1.90895E-001	-1.65895E-001	1.06576E-008	-3.78802E-008	4.85378E-008	-1.91000E-001	3.82039E-004	6	..........a	-327.68
	93	9.4	-1.38779E-001	-1.88787E-001	-1.63783E-001	1.11600E-008	-3.72502E-008	4.84102E-008	-1.89000E-001	3.82039E-004	6	..........a	-327.68
	94	9.5	-1.36886E-001	-1.86819E-001	-1.61853E-001	1.14210E-008	-3.68804E-008	4.83015E-008	-1.87000E-001	3.60706E-004	6	..........a	-327.68
	95	9.6	-1.34920E-001	-1.84908E-001	-1.59914E-001	1.19078E-008	-3.62690E-008	4.81768E-008	-1.85000E-001	3.78539E-004	6	..........a	-327.68
	96	9.7	-1.32794E-001	-1.82875E-001	-1.57835E-001	1.26192E-008	-3.54329E-008	4.80521E-008	-1.83000E-001	3.79873E-004	6	..........a	-327.68
	97	9.8	-1.30796E-001	-1.80832E-001	-1.55814E-001	1.31356E-008	-3.48832E-008	4.80188E-008	-1.81000E-001	3.77873E-004	6	..........a	-327.68
	98	9.9	-1.28843E-001	-1.78816E-001	-1.53830E-001	1.31386E-008	-3.43421E-008	4.74807E-008	-1.79000E-001	3.79039E-004	6	..........a	-327.68
	99	10	-1.26907E-001	-1.76873E-001	-1.51890E-001	1.36747E-008	-3.39474E-008	4.76221E-008	-1.77000E-001	3.64373E-004	6	..........a	-327.68
	100	10.1	-1.24831E-001	-1.74885E-001	-1.49858E-001	1.40917E-008	-3.34047E-008	4.74964E-008	-1.75000E-001	3.65539E-004	6	..........a	-327.68
