EXPLAIN
TAG	SQUARE_WAVE
TITLE	LABEL	Square Wave Voltammetry	Test Identifier
DATE	LABEL	8/10/2020	Date
TIME	LABEL	15:19:29	Time
NOTES	NOTES	1	Notes...
	 STD3 0.1 fg/mL 08102
PSTAT	PSTAT	REF600-24079	Potentiostat
VINIT	QUANT	-3.50000E-001	Initial E (V)
VFINAL	QUANT	-1.50000E-001	Final E (V)
STEPSIZE	QUANT	2.00000E+000	Step Size (mV)
TIMERRES	QUANT	3.33340E-005	&Timer Resolution
FREQUENCY	QUANT	1.00000E+001	Frequency (Hz)
PULSESIZE	QUANT	2.50000E+001	Pulse Size E (mV)
PULSEON	QUANT	1.00000E-001	Pulse &Time (s)
NOISEREJECT	TOGGLE	F	Noise Rejection
AREA	QUANT	2.00000E-002	Sample Area (cm^2)
IMODE	SELECTOR	1	I/E Range Mode
IRANGE	QUANT	1.00000E-003	Max Current (mA)
EQDELAY	IQUANT	10	Equil. Time (s)
IRCOMP	SELECTOR	0	IRComp
PFCOR	QUANT	5.00000E+001	PF Corr. (ohm)
CYCLES	IQUANT	101	C&ycles (#)
ELECTRODETYPE	SELECTOR	0	Electrode Type
STRIPPING	TOGGLE	F	Used for Stripping
POLARITY	TOGGLE	F	Signal Polarity
LINEFREQ	IQUANT	60	Line Frequency (Hz)
INTPERIOD	QUANT	3.3334E-005	Integration Period (s)
SEQUENCER	TOGGLE	TRUE	Run as Sequence
PSTATMODEL	IQUANT	4	Pstat Model
PSTATSECTION	LABEL	REF600-24079	Pstat Section
PSTATSERIALNO	LABEL	24079	Pstat Serial Number
CTRLMODE	IQUANT	1	Control Mode
ELECTROMETER	IQUANT	0	RE=0 or CS=1
IESTAB	IQUANT	2	I/E Stability
CASPEED	IQUANT	6	Control Amp Speed
CONVENTION	IQUANT	1	Current Convention
ICHRANGE	IQUANT	2	Ich Range
ICHRANGEMODE	TOGGLE	F	Ich Auto Range
ICHOFFSETENABLE	TOGGLE	F	Ich Offset Enable
ICHOFFSET	QUANT	0	Ich Offset (V)
ICHFILTER	IQUANT	2	Ich Filter
VCHRANGE	IQUANT	2	Vch Range
VCHRANGEMODE	TOGGLE	F	Vch Auto Range
VCHOFFSETENABLE	TOGGLE	F	Vch Offset Enable
VCHOFFSET	QUANT	0	Vch Offset (V)
VCHFILTER	IQUANT	2	Vch Filter
ACHRANGE	IQUANT	2	Ach Range
ACHOFFSETENABLE	TOGGLE	F	Ach Offset Enable
ACHOFFSET	QUANT	0	Ach Offset (V)
ACHFILTER	IQUANT	1	Ach Filter
IERANGELOWERLIMIT	IQUANT	1	I/E Range Lower Limit
IERANGEMODE	TOGGLE	F	I/E AutoRange
IERANGE	IQUANT	6	I/E Range
POSFEEDENABLE	TOGGLE	F	Positive Feedback IR Comp
POSFEEDRESISTANCE	QUANT	0	Positive Feedback Resistance (ohm)
ACHSELECT	IQUANT	0	Ach Select
SENSECABLEID	IQUANT	13	Sense Cable ID
PWRCABLEID	IQUANT	13	Power Cable ID
DCCALDATE	LABEL	6/30/2020	DC Calibration Date
ACCALDATE	LABEL	6/30/2020	AC Calibration Date
THERMOSELECT	IQUANT	1	Thermo Select
FRAMEWORKVERSION	LABEL	7.8.2	Framework Version
INSTRUMENTVERSION	LABEL	4.40	Instrument Version
CURVE	TABLE	101
	Pt	T	Vfwd	Vrev	Vstep	Ifwd	Irev	Idif	Sig	Ach	IERange	Over	Temp
	#	s	V	V	V	A	A	A	V	V	#	bits	deg C
	0	0.1	-3.24858E-001	-3.74890E-001	-3.49874E-001	-7.28707E-008	-1.35208E-007	6.23376E-008	-3.75000E-001	4.27373E-004	6	..........a	-327.68
	1	0.2	-3.22837E-001	-3.72878E-001	-3.47858E-001	-5.80228E-008	-1.27919E-007	6.98959E-008	-3.73000E-001	4.41373E-004	6	..........a	-327.68
	2	0.3	-3.20855E-001	-3.70783E-001	-3.45819E-001	-5.42790E-008	-1.24398E-007	7.01186E-008	-3.71000E-001	4.28039E-004	6	..........a	-327.68
	3	0.4	-3.18895E-001	-3.68909E-001	-3.43902E-001	-5.20057E-008	-1.21384E-007	6.93782E-008	-3.69000E-001	4.45039E-004	6	..........a	-327.68
	4	0.5	-3.16775E-001	-3.66918E-001	-3.41847E-001	-5.00645E-008	-1.18560E-007	6.84957E-008	-3.67000E-001	4.32039E-004	6	..........a	-327.68
	5	0.6	-3.14870E-001	-3.64744E-001	-3.39807E-001	-4.83682E-008	-1.16272E-007	6.79033E-008	-3.65000E-001	4.31706E-004	6	..........a	-327.68
	6	0.7	-3.12895E-001	-3.62816E-001	-3.37856E-001	-4.69804E-008	-1.14090E-007	6.71095E-008	-3.63000E-001	4.26039E-004	6	..........a	-327.68
	7	0.8	-3.10870E-001	-3.60861E-001	-3.35865E-001	-4.54439E-008	-1.11913E-007	6.64688E-008	-3.61000E-001	4.37373E-004	6	..........a	-327.68
	8	0.9	-3.08815E-001	-3.58876E-001	-3.33845E-001	-4.44431E-008	-1.09674E-007	6.52306E-008	-3.59000E-001	4.38539E-004	6	..........a	-327.68
	9	1	-3.06821E-001	-3.56819E-001	-3.31820E-001	-4.28245E-008	-1.07772E-007	6.49476E-008	-3.57000E-001	4.32706E-004	6	..........a	-327.68
	10	1.1	-3.04867E-001	-3.54820E-001	-3.29844E-001	-4.16194E-008	-1.06019E-007	6.43995E-008	-3.55000E-001	4.32373E-004	6	..........a	-327.68
	11	1.2	-3.02883E-001	-3.52874E-001	-3.27879E-001	-4.04402E-008	-1.04184E-007	6.37441E-008	-3.53000E-001	4.26539E-004	6	..........a	-327.68
	12	1.3	-3.00858E-001	-3.50875E-001	-3.25867E-001	-3.89744E-008	-1.02353E-007	6.33784E-008	-3.51000E-001	4.17206E-004	6	..........a	-327.68
	13	1.4	-2.98842E-001	-3.48865E-001	-3.23853E-001	-3.77606E-008	-1.00658E-007	6.28973E-008	-3.49000E-001	4.28539E-004	6	..........a	-327.68
	14	1.5	-2.96874E-001	-3.46859E-001	-3.21866E-001	-3.69008E-008	-9.91407E-008	6.22399E-008	-3.47000E-001	4.16706E-004	6	..........a	-327.68
	15	1.6	-2.94870E-001	-3.44875E-001	-3.19873E-001	-3.55886E-008	-9.77038E-008	6.21152E-008	-3.45000E-001	4.07873E-004	6	..........a	-327.68
	16	1.7	-2.92683E-001	-3.42889E-001	-3.17786E-001	-3.44695E-008	-9.59620E-008	6.14925E-008	-3.43000E-001	4.19706E-004	6	..........a	-327.68
	17	1.8	-2.90803E-001	-3.40869E-001	-3.15836E-001	-3.31116E-008	-9.45844E-008	6.14728E-008	-3.41000E-001	4.16373E-004	6	..........a	-327.68
	18	1.9	-2.88914E-001	-3.38834E-001	-3.13874E-001	-3.21038E-008	-9.31469E-008	6.10431E-008	-3.39000E-001	4.05373E-004	6	..........a	-327.68
	19	2	-2.86877E-001	-3.36873E-001	-3.11875E-001	-3.09304E-008	-9.17834E-008	6.08531E-008	-3.37000E-001	4.10873E-004	6	..........a	-327.68
	20	2.1	-2.84791E-001	-3.34880E-001	-3.09835E-001	-2.98362E-008	-9.03766E-008	6.05404E-008	-3.35000E-001	4.08206E-004	6	..........a	-327.68
	21	2.2	-2.82801E-001	-3.32772E-001	-3.07786E-001	-2.85804E-008	-8.89957E-008	6.04153E-008	-3.33000E-001	4.24706E-004	6	..........a	-327.68
	22	2.3	-2.80879E-001	-3.30819E-001	-3.05849E-001	-2.76826E-008	-8.77712E-008	6.00886E-008	-3.31000E-001	4.20039E-004	6	..........a	-327.68
	23	2.4	-2.78868E-001	-3.28879E-001	-3.03873E-001	-2.65418E-008	-8.65498E-008	6.00080E-008	-3.29000E-001	4.22873E-004	6	..........a	-327.68
	24	2.5	-2.76846E-001	-3.26893E-001	-3.01870E-001	-2.54350E-008	-8.55156E-008	6.00806E-008	-3.27000E-001	4.22706E-004	6	..........a	-327.68
	25	2.6	-2.74827E-001	-3.24862E-001	-2.99844E-001	-2.43485E-008	-8.42858E-008	5.99373E-008	-3.25000E-001	4.11373E-004	6	..........a	-327.68
	26	2.7	-2.72860E-001	-3.22848E-001	-2.97854E-001	-2.32410E-008	-8.29936E-008	5.97526E-008	-3.23000E-001	4.17873E-004	6	..........a	-327.68
	27	2.8	-2.70873E-001	-3.20870E-001	-2.95872E-001	-2.20926E-008	-8.20669E-008	5.99743E-008	-3.21000E-001	4.23039E-004	6	..........a	-327.68
	28	2.9	-2.68882E-001	-3.18895E-001	-2.93888E-001	-2.12211E-008	-8.07937E-008	5.95726E-008	-3.19000E-001	4.20539E-004	6	..........a	-327.68
	29	3	-2.66799E-001	-3.16775E-001	-2.91787E-001	-2.02233E-008	-7.98476E-008	5.96243E-008	-3.17000E-001	4.36373E-004	6	..........a	-327.68
	30	3.1	-2.64891E-001	-3.14875E-001	-2.89883E-001	-1.90685E-008	-7.90441E-008	5.99756E-008	-3.15000E-001	4.30039E-004	6	..........a	-327.68
	31	3.2	-2.62903E-001	-3.12894E-001	-2.87899E-001	-1.80494E-008	-7.76096E-008	5.95603E-008	-3.13000E-001	4.29706E-004	6	..........a	-327.68
	32	3.3	-2.60728E-001	-3.10889E-001	-2.85808E-001	-1.70259E-008	-7.70352E-008	6.00093E-008	-3.11000E-001	4.46039E-004	6	..........a	-327.68
	33	3.4	-2.58817E-001	-3.08852E-001	-2.83834E-001	-1.60238E-008	-7.61274E-008	6.01037E-008	-3.09000E-001	4.47873E-004	6	..........a	-327.68
	34	3.5	-2.56865E-001	-3.06836E-001	-2.81850E-001	-1.50247E-008	-7.53577E-008	6.03330E-008	-3.07000E-001	4.32873E-004	6	..........a	-327.68
	35	3.6	-2.54898E-001	-3.04900E-001	-2.79899E-001	-1.41395E-008	-7.46712E-008	6.05317E-008	-3.05000E-001	4.27539E-004	6	..........a	-327.68
	36	3.7	-2.52803E-001	-3.02886E-001	-2.77845E-001	-1.32014E-008	-7.39008E-008	6.06994E-008	-3.03000E-001	4.34039E-004	6	..........a	-327.68
	37	3.8	-2.50828E-001	-3.00870E-001	-2.75849E-001	-1.21546E-008	-7.32224E-008	6.10678E-008	-3.01000E-001	4.33373E-004	6	..........a	-327.68
	38	3.9	-2.48872E-001	-2.98859E-001	-2.73865E-001	-1.13305E-008	-7.26520E-008	6.13215E-008	-2.99000E-001	4.34873E-004	6	..........a	-327.68
	39	4	-2.46868E-001	-2.96877E-001	-2.71872E-001	-1.04267E-008	-7.18619E-008	6.14352E-008	-2.97000E-001	4.41039E-004	6	..........a	-327.68
	40	4.1	-2.44861E-001	-2.94855E-001	-2.69858E-001	-9.69698E-009	-7.11968E-008	6.14998E-008	-2.95000E-001	4.23706E-004	6	..........a	-327.68
	41	4.2	-2.42786E-001	-2.92739E-001	-2.67762E-001	-9.20859E-009	-7.06251E-008	6.14165E-008	-2.93000E-001	4.40373E-004	6	..........a	-327.68
	42	4.3	-2.40877E-001	-2.90810E-001	-2.65844E-001	-8.28514E-009	-7.00300E-008	6.17449E-008	-2.91000E-001	4.28539E-004	6	..........a	-327.68
	43	4.4	-2.38917E-001	-2.88919E-001	-2.63918E-001	-7.63539E-009	-6.91839E-008	6.15485E-008	-2.89000E-001	4.32039E-004	6	..........a	-327.68
	44	4.5	-2.36834E-001	-2.86885E-001	-2.61860E-001	-7.19300E-009	-6.87442E-008	6.15512E-008	-2.87000E-001	4.34706E-004	6	..........a	-327.68
	45	4.6	-2.34822E-001	-2.84822E-001	-2.59822E-001	-6.60192E-009	-6.80931E-008	6.14912E-008	-2.85000E-001	4.37873E-004	6	..........a	-327.68
	46	4.7	-2.32854E-001	-2.82820E-001	-2.57837E-001	-5.99218E-009	-6.72807E-008	6.12885E-008	-2.83000E-001	4.43706E-004	6	..........a	-327.68
	47	4.8	-2.30868E-001	-2.80898E-001	-2.55883E-001	-5.42577E-009	-6.65826E-008	6.11568E-008	-2.81000E-001	4.46039E-004	6	..........a	-327.68
	48	4.9	-2.28784E-001	-2.78872E-001	-2.53828E-001	-5.20875E-009	-6.60155E-008	6.08067E-008	-2.79000E-001	4.21373E-004	6	..........a	-327.68
	49	5	-2.26811E-001	-2.76807E-001	-2.51809E-001	-4.82036E-009	-6.51660E-008	6.03457E-008	-2.77000E-001	4.36706E-004	6	..........a	-327.68
	50	5.1	-2.24856E-001	-2.74836E-001	-2.49846E-001	-4.41198E-009	-6.45616E-008	6.01497E-008	-2.75000E-001	4.17039E-004	6	..........a	-327.68
	51	5.2	-2.22867E-001	-2.72879E-001	-2.47873E-001	-4.01526E-009	-6.38499E-008	5.98346E-008	-2.73000E-001	4.36706E-004	6	..........a	-327.68
	52	5.3	-2.20860E-001	-2.70850E-001	-2.45855E-001	-3.68055E-009	-6.27967E-008	5.91162E-008	-2.71000E-001	4.33539E-004	6	..........a	-327.68
	53	5.4	-2.18851E-001	-2.68855E-001	-2.43853E-001	-3.48386E-009	-6.21483E-008	5.86645E-008	-2.69000E-001	4.52373E-004	6	..........a	-327.68
	54	5.5	-2.16887E-001	-2.66800E-001	-2.41843E-001	-3.06714E-009	-6.13839E-008	5.83168E-008	-2.67000E-001	4.31706E-004	6	..........a	-327.68
	55	5.6	-2.14902E-001	-2.64919E-001	-2.39910E-001	-2.79277E-009	-6.05898E-008	5.77970E-008	-2.65000E-001	4.30706E-004	6	..........a	-327.68
	56	5.7	-2.12823E-001	-2.62867E-001	-2.37845E-001	-2.49273E-009	-5.95537E-008	5.70609E-008	-2.63000E-001	4.26206E-004	6	..........a	-327.68
	57	5.8	-2.10840E-001	-2.60838E-001	-2.35839E-001	-2.01934E-009	-5.87952E-008	5.67759E-008	-2.61000E-001	4.18039E-004	6	..........a	-327.68
	58	5.9	-2.08868E-001	-2.58817E-001	-2.33843E-001	-2.03468E-009	-5.80325E-008	5.59978E-008	-2.59000E-001	4.25873E-004	6	..........a	-327.68
	59	6	-2.06885E-001	-2.56883E-001	-2.31884E-001	-1.50928E-009	-5.70100E-008	5.55007E-008	-2.57000E-001	4.16539E-004	6	..........a	-327.68
	60	6.1	-2.04793E-001	-2.54889E-001	-2.29841E-001	-1.30492E-009	-5.60145E-008	5.47096E-008	-2.55000E-001	4.40706E-004	6	..........a	-327.68
	61	6.2	-2.02814E-001	-2.52859E-001	-2.27836E-001	-9.73874E-010	-5.50331E-008	5.40592E-008	-2.53000E-001	4.40206E-004	6	..........a	-327.68
	62	6.3	-2.00866E-001	-2.50834E-001	-2.25850E-001	-7.37844E-010	-5.42097E-008	5.34718E-008	-2.51000E-001	4.14206E-004	6	..........a	-327.68
	63	6.4	-1.98883E-001	-2.48876E-001	-2.23879E-001	-4.84478E-010	-5.34225E-008	5.29381E-008	-2.49000E-001	4.46539E-004	6	..........a	-327.68
	64	6.5	-1.96859E-001	-2.46859E-001	-2.21859E-001	-1.32434E-010	-5.23724E-008	5.22400E-008	-2.47000E-001	4.28373E-004	6	..........a	-327.68
	65	6.6	-1.94850E-001	-2.44868E-001	-2.19859E-001	2.58950E-010	-5.17653E-008	5.20243E-008	-2.45000E-001	4.04373E-004	6	..........a	-327.68
	66	6.7	-1.92875E-001	-2.42786E-001	-2.17830E-001	5.96659E-010	-5.07932E-008	5.13899E-008	-2.43000E-001	4.17539E-004	6	..........a	-327.68
	67	6.8	-1.90884E-001	-2.40904E-001	-2.15894E-001	7.82016E-010	-5.00905E-008	5.08725E-008	-2.41000E-001	4.10039E-004	6	..........a	-327.68
	68	6.9	-1.88738E-001	-2.38900E-001	-2.13819E-001	1.22674E-009	-4.91583E-008	5.03851E-008	-2.39000E-001	4.30539E-004	6	..........a	-327.68
	69	7	-1.86808E-001	-2.36848E-001	-2.11828E-001	1.41276E-009	-4.81809E-008	4.95936E-008	-2.37000E-001	4.30373E-004	6	..........a	-327.68
	70	7.1	-1.84898E-001	-2.34811E-001	-2.09855E-001	1.65313E-009	-4.78465E-008	4.94996E-008	-2.35000E-001	4.18373E-004	6	..........a	-327.68
	71	7.2	-1.82872E-001	-2.32864E-001	-2.07868E-001	2.00784E-009	-4.68557E-008	4.88635E-008	-2.33000E-001	4.02706E-004	6	..........a	-327.68
	72	7.3	-1.80779E-001	-2.30879E-001	-2.05829E-001	2.44056E-009	-4.63553E-008	4.87959E-008	-2.31000E-001	4.07539E-004	6	..........a	-327.68
	73	7.4	-1.78795E-001	-2.28816E-001	-2.03806E-001	2.55491E-009	-4.56392E-008	4.81941E-008	-2.29000E-001	4.08373E-004	6	..........a	-327.68
	74	7.5	-1.76849E-001	-2.26822E-001	-2.01835E-001	2.84194E-009	-4.50128E-008	4.78548E-008	-2.27000E-001	3.95539E-004	6	..........a	-327.68
	75	7.6	-1.74879E-001	-2.24884E-001	-1.99881E-001	3.01697E-009	-4.42480E-008	4.72650E-008	-2.25000E-001	4.10206E-004	6	..........a	-327.68
	76	7.7	-1.72842E-001	-2.22874E-001	-1.97858E-001	3.59604E-009	-4.36363E-008	4.72323E-008	-2.23000E-001	3.97373E-004	6	..........a	-327.68
	77	7.8	-1.70831E-001	-2.20856E-001	-1.95843E-001	3.73706E-009	-4.28219E-008	4.65589E-008	-2.21000E-001	4.00206E-004	6	..........a	-327.68
	78	7.9	-1.68873E-001	-2.18847E-001	-1.93860E-001	4.32813E-009	-4.25542E-008	4.68823E-008	-2.19000E-001	4.09539E-004	6	..........a	-327.68
	79	8	-1.66873E-001	-2.16900E-001	-1.91886E-001	4.43948E-009	-4.18307E-008	4.62702E-008	-2.17000E-001	3.95039E-004	6	..........a	-327.68
	80	8.1	-1.64718E-001	-2.14884E-001	-1.89801E-001	4.64117E-009	-4.14560E-008	4.60972E-008	-2.15000E-001	4.14206E-004	6	..........a	-327.68
	81	8.2	-1.62787E-001	-2.12756E-001	-1.87772E-001	5.01622E-009	-4.06986E-008	4.57148E-008	-2.13000E-001	4.16373E-004	6	..........a	-327.68
	82	8.3	-1.60909E-001	-2.10859E-001	-1.85884E-001	5.38860E-009	-4.03045E-008	4.56931E-008	-2.11000E-001	4.09039E-004	6	..........a	-327.68
	83	8.4	-1.58881E-001	-2.08865E-001	-1.83873E-001	5.60030E-009	-3.97008E-008	4.53011E-008	-2.09000E-001	4.03539E-004	6	..........a	-327.68
	84	8.5	-1.56788E-001	-2.06893E-001	-1.81840E-001	5.92500E-009	-3.93748E-008	4.52998E-008	-2.07000E-001	4.02039E-004	6	..........a	-327.68
	85	8.6	-1.54807E-001	-2.04744E-001	-1.79775E-001	6.19670E-009	-3.87974E-008	4.49941E-008	-2.05000E-001	4.01539E-004	6	..........a	-327.68
	86	8.7	-1.52882E-001	-2.02817E-001	-1.77850E-001	6.60742E-009	-3.83150E-008	4.49224E-008	-2.03000E-001	3.95873E-004	6	..........a	-327.68
	87	8.8	-1.50884E-001	-2.00865E-001	-1.75874E-001	6.89746E-009	-3.78326E-008	4.47300E-008	-2.01000E-001	3.95706E-004	6	..........a	-327.68
	88	8.9	-1.48847E-001	-1.98890E-001	-1.73868E-001	7.18216E-009	-3.76712E-008	4.48534E-008	-1.99000E-001	3.87873E-004	6	..........a	-327.68
	89	9	-1.46832E-001	-1.96866E-001	-1.71849E-001	7.43986E-009	-3.68391E-008	4.42790E-008	-1.97000E-001	4.13373E-004	6	..........a	-327.68
	90	9.1	-1.44872E-001	-1.94853E-001	-1.69862E-001	7.94459E-009	-3.64150E-008	4.43596E-008	-1.95000E-001	4.03539E-004	6	..........a	-327.68
	91	9.2	-1.42891E-001	-1.92883E-001	-1.67887E-001	7.93426E-009	-3.58303E-008	4.37646E-008	-1.93000E-001	3.85373E-004	6	..........a	-327.68
	92	9.3	-1.40877E-001	-1.90897E-001	-1.65887E-001	8.24463E-009	-3.55706E-008	4.38152E-008	-1.91000E-001	4.06039E-004	6	..........a	-327.68
	93	9.4	-1.38772E-001	-1.88768E-001	-1.63770E-001	8.51067E-009	-3.51656E-008	4.36762E-008	-1.89000E-001	3.90873E-004	6	..........a	-327.68
	94	9.5	-1.36877E-001	-1.86825E-001	-1.61851E-001	9.07274E-009	-3.46782E-008	4.37509E-008	-1.87000E-001	3.86706E-004	6	..........a	-327.68
	95	9.6	-1.34901E-001	-1.84895E-001	-1.59898E-001	9.12941E-009	-3.43525E-008	4.34819E-008	-1.85000E-001	3.78373E-004	6	..........a	-327.68
	96	9.7	-1.32715E-001	-1.82884E-001	-1.57799E-001	9.31877E-009	-3.40931E-008	4.34119E-008	-1.83000E-001	3.82539E-004	6	..........a	-327.68
	97	9.8	-1.30792E-001	-1.80787E-001	-1.55789E-001	9.68648E-009	-3.34830E-008	4.31695E-008	-1.81000E-001	3.84873E-004	6	..........a	-327.68
	98	9.9	-1.28829E-001	-1.78807E-001	-1.53818E-001	1.00312E-008	-3.31640E-008	4.31952E-008	-1.79000E-001	3.84539E-004	6	..........a	-327.68
	99	10	-1.26900E-001	-1.76855E-001	-1.51877E-001	1.02139E-008	-3.26649E-008	4.28788E-008	-1.77000E-001	4.05539E-004	6	..........a	-327.68
	100	10.1	-1.24782E-001	-1.74890E-001	-1.49836E-001	1.04216E-008	-3.24719E-008	4.28935E-008	-1.75000E-001	3.93373E-004	6	..........a	-327.68
