EXPLAIN
TAG	SQUARE_WAVE
TITLE	LABEL	Square Wave Voltammetry	Test Identifier
DATE	LABEL	8/10/2020	Date
TIME	LABEL	13:19:17	Time
NOTES	NOTES	1	Notes...
	 STD3 aptmch 08102
PSTAT	PSTAT	REF600-24079	Potentiostat
VINIT	QUANT	-3.50000E-001	Initial E (V)
VFINAL	QUANT	-1.50000E-001	Final E (V)
STEPSIZE	QUANT	2.00000E+000	Step Size (mV)
TIMERRES	QUANT	3.33340E-005	&Timer Resolution
FREQUENCY	QUANT	1.00000E+001	Frequency (Hz)
PULSESIZE	QUANT	2.50000E+001	Pulse Size E (mV)
PULSEON	QUANT	1.00000E-001	Pulse &Time (s)
NOISEREJECT	TOGGLE	F	Noise Rejection
AREA	QUANT	2.00000E-002	Sample Area (cm^2)
IMODE	SELECTOR	1	I/E Range Mode
IRANGE	QUANT	1.00000E-003	Max Current (mA)
EQDELAY	IQUANT	10	Equil. Time (s)
IRCOMP	SELECTOR	0	IRComp
PFCOR	QUANT	5.00000E+001	PF Corr. (ohm)
CYCLES	IQUANT	101	C&ycles (#)
ELECTRODETYPE	SELECTOR	0	Electrode Type
STRIPPING	TOGGLE	F	Used for Stripping
POLARITY	TOGGLE	F	Signal Polarity
LINEFREQ	IQUANT	60	Line Frequency (Hz)
INTPERIOD	QUANT	3.3334E-005	Integration Period (s)
SEQUENCER	TOGGLE	TRUE	Run as Sequence
PSTATMODEL	IQUANT	4	Pstat Model
PSTATSECTION	LABEL	REF600-24079	Pstat Section
PSTATSERIALNO	LABEL	24079	Pstat Serial Number
CTRLMODE	IQUANT	1	Control Mode
ELECTROMETER	IQUANT	0	RE=0 or CS=1
IESTAB	IQUANT	2	I/E Stability
CASPEED	IQUANT	6	Control Amp Speed
CONVENTION	IQUANT	1	Current Convention
ICHRANGE	IQUANT	2	Ich Range
ICHRANGEMODE	TOGGLE	F	Ich Auto Range
ICHOFFSETENABLE	TOGGLE	F	Ich Offset Enable
ICHOFFSET	QUANT	0	Ich Offset (V)
ICHFILTER	IQUANT	2	Ich Filter
VCHRANGE	IQUANT	2	Vch Range
VCHRANGEMODE	TOGGLE	F	Vch Auto Range
VCHOFFSETENABLE	TOGGLE	F	Vch Offset Enable
VCHOFFSET	QUANT	0	Vch Offset (V)
VCHFILTER	IQUANT	2	Vch Filter
ACHRANGE	IQUANT	2	Ach Range
ACHOFFSETENABLE	TOGGLE	F	Ach Offset Enable
ACHOFFSET	QUANT	0	Ach Offset (V)
ACHFILTER	IQUANT	1	Ach Filter
IERANGELOWERLIMIT	IQUANT	1	I/E Range Lower Limit
IERANGEMODE	TOGGLE	F	I/E AutoRange
IERANGE	IQUANT	6	I/E Range
POSFEEDENABLE	TOGGLE	F	Positive Feedback IR Comp
POSFEEDRESISTANCE	QUANT	0	Positive Feedback Resistance (ohm)
ACHSELECT	IQUANT	0	Ach Select
SENSECABLEID	IQUANT	13	Sense Cable ID
PWRCABLEID	IQUANT	13	Power Cable ID
DCCALDATE	LABEL	6/30/2020	DC Calibration Date
ACCALDATE	LABEL	6/30/2020	AC Calibration Date
THERMOSELECT	IQUANT	1	Thermo Select
FRAMEWORKVERSION	LABEL	7.8.2	Framework Version
INSTRUMENTVERSION	LABEL	4.40	Instrument Version
CURVE	TABLE	101
	Pt	T	Vfwd	Vrev	Vstep	Ifwd	Irev	Idif	Sig	Ach	IERange	Over	Temp
	#	s	V	V	V	A	A	A	V	V	#	bits	deg C
	0	0.1	-3.24819E-001	-3.74856E-001	-3.49837E-001	-1.13062E-008	-4.23535E-008	3.10473E-008	-3.75000E-001	4.22206E-004	6	..........a	-327.68
	1	0.2	-3.22840E-001	-3.72848E-001	-3.47844E-001	1.11306E-009	-3.78286E-008	3.89416E-008	-3.73000E-001	3.86873E-004	6	..........a	-327.68
	2	0.3	-3.20864E-001	-3.70777E-001	-3.45820E-001	3.46636E-009	-3.58446E-008	3.93110E-008	-3.71000E-001	3.93873E-004	6	..........a	-327.68
	3	0.4	-3.18839E-001	-3.68579E-001	-3.43709E-001	4.39848E-009	-3.46945E-008	3.90930E-008	-3.69000E-001	3.83539E-004	6	..........a	-327.68
	4	0.5	-3.16758E-001	-3.66880E-001	-3.41819E-001	5.19191E-009	-3.37187E-008	3.89106E-008	-3.67000E-001	4.00873E-004	6	..........a	-327.68
	5	0.6	-3.14898E-001	-3.64839E-001	-3.39868E-001	5.84366E-009	-3.31163E-008	3.89600E-008	-3.65000E-001	3.88206E-004	6	..........a	-327.68
	6	0.7	-3.12705E-001	-3.62821E-001	-3.37763E-001	6.40106E-009	-3.24759E-008	3.88769E-008	-3.63000E-001	3.86706E-004	6	..........a	-327.68
	7	0.8	-3.10859E-001	-3.60743E-001	-3.35801E-001	6.67543E-009	-3.18851E-008	3.85606E-008	-3.61000E-001	4.03206E-004	6	..........a	-327.68
	8	0.9	-3.08793E-001	-3.58862E-001	-3.33828E-001	7.24284E-009	-3.13481E-008	3.85909E-008	-3.59000E-001	3.91039E-004	6	..........a	-327.68
	9	1	-3.06827E-001	-3.56831E-001	-3.31829E-001	7.63522E-009	-3.09417E-008	3.85769E-008	-3.57000E-001	3.92873E-004	6	..........a	-327.68
	10	1.1	-3.04786E-001	-3.54834E-001	-3.29810E-001	8.00027E-009	-3.03986E-008	3.83989E-008	-3.55000E-001	3.87539E-004	6	..........a	-327.68
	11	1.2	-3.02880E-001	-3.52854E-001	-3.27867E-001	8.10328E-009	-2.99362E-008	3.80395E-008	-3.53000E-001	3.69873E-004	6	..........a	-327.68
	12	1.3	-3.00861E-001	-3.50861E-001	-3.25861E-001	8.54034E-009	-2.96369E-008	3.81772E-008	-3.51000E-001	3.89039E-004	6	..........a	-327.68
	13	1.4	-2.98847E-001	-3.48869E-001	-3.23858E-001	8.79270E-009	-2.93341E-008	3.81268E-008	-3.49000E-001	3.84873E-004	6	..........a	-327.68
	14	1.5	-2.96870E-001	-3.46860E-001	-3.21865E-001	9.32510E-009	-2.88091E-008	3.81342E-008	-3.47000E-001	3.93873E-004	6	..........a	-327.68
	15	1.6	-2.94880E-001	-3.44564E-001	-3.19722E-001	9.55947E-009	-2.84587E-008	3.80182E-008	-3.45000E-001	3.83539E-004	6	..........a	-327.68
	16	1.7	-2.92709E-001	-3.42837E-001	-3.17773E-001	9.76816E-009	-2.82633E-008	3.80315E-008	-3.43000E-001	3.80039E-004	6	..........a	-327.68
	17	1.8	-2.90798E-001	-3.40850E-001	-3.15824E-001	1.02219E-008	-2.80193E-008	3.82412E-008	-3.41000E-001	3.88039E-004	6	..........a	-327.68
	18	1.9	-2.88758E-001	-3.38865E-001	-3.13811E-001	1.04649E-008	-2.76603E-008	3.81252E-008	-3.39000E-001	3.97706E-004	6	..........a	-327.68
	19	2	-2.86826E-001	-3.36700E-001	-3.11763E-001	1.08620E-008	-2.74789E-008	3.83409E-008	-3.37000E-001	3.82039E-004	6	..........a	-327.68
	20	2.1	-2.84780E-001	-3.34866E-001	-3.09823E-001	1.09713E-008	-2.71332E-008	3.81045E-008	-3.35000E-001	3.96206E-004	6	..........a	-327.68
	21	2.2	-2.82789E-001	-3.32802E-001	-3.07795E-001	1.14270E-008	-2.69022E-008	3.83292E-008	-3.33000E-001	3.91539E-004	6	..........a	-327.68
	22	2.3	-2.80769E-001	-3.30814E-001	-3.05792E-001	1.16647E-008	-2.64468E-008	3.81115E-008	-3.31000E-001	3.91873E-004	6	..........a	-327.68
	23	2.4	-2.78840E-001	-3.28801E-001	-3.03821E-001	1.19754E-008	-2.64081E-008	3.83835E-008	-3.29000E-001	3.88539E-004	6	..........a	-327.68
	24	2.5	-2.76833E-001	-3.26875E-001	-3.01854E-001	1.23382E-008	-2.60221E-008	3.83602E-008	-3.27000E-001	4.15706E-004	6	..........a	-327.68
	25	2.6	-2.74836E-001	-3.24854E-001	-2.99845E-001	1.25562E-008	-2.58457E-008	3.84019E-008	-3.25000E-001	4.00039E-004	6	..........a	-327.68
	26	2.7	-2.72858E-001	-3.22856E-001	-2.97857E-001	1.31319E-008	-2.57050E-008	3.88369E-008	-3.23000E-001	4.05706E-004	6	..........a	-327.68
	27	2.8	-2.70885E-001	-3.20846E-001	-2.95866E-001	1.32696E-008	-2.56977E-008	3.89673E-008	-3.21000E-001	3.93039E-004	6	..........a	-327.68
	28	2.9	-2.68867E-001	-3.18865E-001	-2.93866E-001	1.36967E-008	-2.54967E-008	3.91933E-008	-3.19000E-001	3.88373E-004	6	..........a	-327.68
	29	3	-2.66787E-001	-3.16760E-001	-2.91773E-001	1.38617E-008	-2.52530E-008	3.91146E-008	-3.17000E-001	3.92039E-004	6	..........a	-327.68
	30	3.1	-2.64644E-001	-3.14890E-001	-2.89767E-001	1.42214E-008	-2.53163E-008	3.95377E-008	-3.15000E-001	3.88539E-004	6	..........a	-327.68
	31	3.2	-2.62898E-001	-3.12708E-001	-2.87803E-001	1.45374E-008	-2.53906E-008	3.99281E-008	-3.13000E-001	4.10873E-004	6	..........a	-327.68
	32	3.3	-2.60731E-001	-3.10873E-001	-2.85802E-001	1.47741E-008	-2.52150E-008	3.99891E-008	-3.11000E-001	4.17873E-004	6	..........a	-327.68
	33	3.4	-2.58803E-001	-3.08825E-001	-2.83814E-001	1.49231E-008	-2.50413E-008	3.99644E-008	-3.09000E-001	4.05873E-004	6	..........a	-327.68
	34	3.5	-2.56752E-001	-3.06847E-001	-2.81800E-001	1.53422E-008	-2.49109E-008	4.02531E-008	-3.07000E-001	4.17373E-004	6	..........a	-327.68
	35	3.6	-2.54871E-001	-3.04778E-001	-2.79825E-001	1.54392E-008	-2.50456E-008	4.04848E-008	-3.05000E-001	4.01373E-004	6	..........a	-327.68
	36	3.7	-2.52809E-001	-3.02874E-001	-2.77842E-001	1.55699E-008	-2.50503E-008	4.06202E-008	-3.03000E-001	4.12206E-004	6	..........a	-327.68
	37	3.8	-2.50812E-001	-3.00881E-001	-2.75846E-001	1.59489E-008	-2.48042E-008	4.07532E-008	-3.01000E-001	3.97373E-004	6	..........a	-327.68
	38	3.9	-2.48852E-001	-2.98847E-001	-2.73850E-001	1.60710E-008	-2.47812E-008	4.08522E-008	-2.99000E-001	3.95873E-004	6	..........a	-327.68
	39	4	-2.46866E-001	-2.96861E-001	-2.71863E-001	1.63890E-008	-2.48106E-008	4.11996E-008	-2.97000E-001	3.98873E-004	6	..........a	-327.68
	40	4.1	-2.44856E-001	-2.94877E-001	-2.69867E-001	1.63820E-008	-2.47492E-008	4.11312E-008	-2.95000E-001	4.02539E-004	6	..........a	-327.68
	41	4.2	-2.42761E-001	-2.92742E-001	-2.67752E-001	1.64357E-008	-2.46055E-008	4.10412E-008	-2.93000E-001	4.01873E-004	6	..........a	-327.68
	42	4.3	-2.40544E-001	-2.90822E-001	-2.65683E-001	1.63833E-008	-2.44735E-008	4.08569E-008	-2.91000E-001	3.87373E-004	6	..........a	-327.68
	43	4.4	-2.38847E-001	-2.88725E-001	-2.63786E-001	1.67054E-008	-2.45205E-008	4.12259E-008	-2.89000E-001	3.93539E-004	6	..........a	-327.68
	44	4.5	-2.36794E-001	-2.86854E-001	-2.61824E-001	1.67400E-008	-2.41908E-008	4.09309E-008	-2.87000E-001	4.02873E-004	6	..........a	-327.68
	45	4.6	-2.34804E-001	-2.84821E-001	-2.59813E-001	1.66367E-008	-2.40238E-008	4.06605E-008	-2.85000E-001	3.88373E-004	6	..........a	-327.68
	46	4.7	-2.32717E-001	-2.82819E-001	-2.57768E-001	1.67164E-008	-2.39068E-008	4.06232E-008	-2.83000E-001	3.98206E-004	6	..........a	-327.68
	47	4.8	-2.30840E-001	-2.80741E-001	-2.55790E-001	1.67514E-008	-2.36978E-008	4.04491E-008	-2.81000E-001	3.99706E-004	6	..........a	-327.68
	48	4.9	-2.28795E-001	-2.78853E-001	-2.53824E-001	1.67417E-008	-2.35377E-008	4.02795E-008	-2.79000E-001	4.00206E-004	6	..........a	-327.68
	49	5	-2.26809E-001	-2.76848E-001	-2.51828E-001	1.68864E-008	-2.33174E-008	4.02038E-008	-2.77000E-001	4.03539E-004	6	..........a	-327.68
	50	5.1	-2.24817E-001	-2.74846E-001	-2.49831E-001	1.67504E-008	-2.31877E-008	3.99381E-008	-2.75000E-001	4.06039E-004	6	..........a	-327.68
	51	5.2	-2.22844E-001	-2.72846E-001	-2.47845E-001	1.68384E-008	-2.29473E-008	3.97857E-008	-2.73000E-001	4.10873E-004	6	..........a	-327.68
	52	5.3	-2.20842E-001	-2.70868E-001	-2.45855E-001	1.67310E-008	-2.26736E-008	3.94047E-008	-2.71000E-001	3.99706E-004	6	..........a	-327.68
	53	5.4	-2.18845E-001	-2.68872E-001	-2.43858E-001	1.66844E-008	-2.24223E-008	3.91066E-008	-2.69000E-001	4.05873E-004	6	..........a	-327.68
	54	5.5	-2.16526E-001	-2.66815E-001	-2.41671E-001	1.67867E-008	-2.22589E-008	3.90456E-008	-2.67000E-001	4.01373E-004	6	..........a	-327.68
	55	5.6	-2.14830E-001	-2.64594E-001	-2.39712E-001	1.65420E-008	-2.19929E-008	3.85349E-008	-2.65000E-001	3.99373E-004	6	..........a	-327.68
	56	5.7	-2.12805E-001	-2.62894E-001	-2.37849E-001	1.66330E-008	-2.16738E-008	3.83069E-008	-2.63000E-001	4.03039E-004	6	..........a	-327.68
	57	5.8	-2.10856E-001	-2.60810E-001	-2.35833E-001	1.66774E-008	-2.14105E-008	3.80878E-008	-2.61000E-001	4.04706E-004	6	..........a	-327.68
	58	5.9	-2.08694E-001	-2.58827E-001	-2.33761E-001	1.65714E-008	-2.11888E-008	3.77601E-008	-2.59000E-001	3.89706E-004	6	..........a	-327.68
	59	6	-2.06846E-001	-2.56750E-001	-2.31798E-001	1.66740E-008	-2.10821E-008	3.77561E-008	-2.57000E-001	4.00206E-004	6	..........a	-327.68
	60	6.1	-2.04802E-001	-2.54894E-001	-2.29848E-001	1.65770E-008	-2.06004E-008	3.71774E-008	-2.55000E-001	3.97539E-004	6	..........a	-327.68
	61	6.2	-2.02806E-001	-2.52851E-001	-2.27829E-001	1.64820E-008	-2.03303E-008	3.68124E-008	-2.53000E-001	3.97206E-004	6	..........a	-327.68
	62	6.3	-2.00775E-001	-2.50854E-001	-2.25814E-001	1.66544E-008	-2.01216E-008	3.67760E-008	-2.51000E-001	3.99539E-004	6	..........a	-327.68
	63	6.4	-1.98871E-001	-2.48853E-001	-2.23862E-001	1.65867E-008	-1.97946E-008	3.63813E-008	-2.49000E-001	3.93539E-004	6	..........a	-327.68
	64	6.5	-1.96844E-001	-2.46873E-001	-2.21859E-001	1.66567E-008	-1.95689E-008	3.62256E-008	-2.47000E-001	4.08873E-004	6	..........a	-327.68
	65	6.6	-1.94840E-001	-2.44869E-001	-2.19854E-001	1.67484E-008	-1.93682E-008	3.61166E-008	-2.45000E-001	4.01539E-004	6	..........a	-327.68
	66	6.7	-1.92871E-001	-2.42817E-001	-2.17844E-001	1.68187E-008	-1.91845E-008	3.60033E-008	-2.43000E-001	3.97873E-004	6	..........a	-327.68
	67	6.8	-1.90809E-001	-2.40575E-001	-2.15692E-001	1.68384E-008	-1.90618E-008	3.59002E-008	-2.41000E-001	4.06039E-004	6	..........a	-327.68
	68	6.9	-1.88753E-001	-2.38873E-001	-2.13813E-001	1.68364E-008	-1.86248E-008	3.54612E-008	-2.39000E-001	4.01706E-004	6	..........a	-327.68
	69	7	-1.86822E-001	-2.36846E-001	-2.11834E-001	1.66300E-008	-1.84871E-008	3.51171E-008	-2.37000E-001	3.93706E-004	6	..........a	-327.68
	70	7.1	-1.84723E-001	-2.34831E-001	-2.09777E-001	1.68364E-008	-1.83401E-008	3.51765E-008	-2.35000E-001	3.85539E-004	6	..........a	-327.68
	71	7.2	-1.82833E-001	-2.32730E-001	-2.07781E-001	1.68531E-008	-1.80587E-008	3.49118E-008	-2.33000E-001	3.93373E-004	6	..........a	-327.68
	72	7.3	-1.80768E-001	-2.30847E-001	-2.05808E-001	1.68811E-008	-1.79540E-008	3.48351E-008	-2.31000E-001	4.03706E-004	6	..........a	-327.68
	73	7.4	-1.78790E-001	-2.28801E-001	-2.03795E-001	1.69384E-008	-1.76410E-008	3.45794E-008	-2.29000E-001	3.90039E-004	6	..........a	-327.68
	74	7.5	-1.76733E-001	-2.26815E-001	-2.01774E-001	1.71284E-008	-1.76193E-008	3.47478E-008	-2.27000E-001	3.87039E-004	6	..........a	-327.68
	75	7.6	-1.74835E-001	-2.24818E-001	-1.99826E-001	1.70084E-008	-1.73826E-008	3.43910E-008	-2.25000E-001	4.02039E-004	6	..........a	-327.68
	76	7.7	-1.72829E-001	-2.22853E-001	-1.97841E-001	1.71911E-008	-1.71513E-008	3.43424E-008	-2.23000E-001	4.06539E-004	6	..........a	-327.68
	77	7.8	-1.70814E-001	-2.20851E-001	-1.95832E-001	1.71281E-008	-1.70286E-008	3.41567E-008	-2.21000E-001	4.00039E-004	6	..........a	-327.68
	78	7.9	-1.68832E-001	-2.18849E-001	-1.93840E-001	1.71551E-008	-1.69052E-008	3.40603E-008	-2.19000E-001	3.96373E-004	6	..........a	-327.68
	79	8	-1.66856E-001	-2.16546E-001	-1.91701E-001	1.70571E-008	-1.67699E-008	3.38270E-008	-2.17000E-001	3.97873E-004	6	..........a	-327.68
	80	8.1	-1.64703E-001	-2.14832E-001	-1.89768E-001	1.70221E-008	-1.64422E-008	3.34643E-008	-2.15000E-001	3.94373E-004	6	..........a	-327.68
	81	8.2	-1.62804E-001	-2.12845E-001	-1.87824E-001	1.73201E-008	-1.63778E-008	3.36980E-008	-2.13000E-001	4.05539E-004	6	..........a	-327.68
	82	8.3	-1.60804E-001	-2.10862E-001	-1.85833E-001	1.73945E-008	-1.63235E-008	3.37180E-008	-2.11000E-001	4.14539E-004	6	..........a	-327.68
	83	8.4	-1.58836E-001	-2.08691E-001	-1.83763E-001	1.74218E-008	-1.62628E-008	3.36846E-008	-2.09000E-001	4.08539E-004	6	..........a	-327.68
	84	8.5	-1.56796E-001	-2.06865E-001	-1.81830E-001	1.75331E-008	-1.61585E-008	3.36916E-008	-2.07000E-001	4.00706E-004	6	..........a	-327.68
	85	8.6	-1.54812E-001	-2.04792E-001	-1.79802E-001	1.76432E-008	-1.59664E-008	3.36096E-008	-2.05000E-001	4.13873E-004	6	..........a	-327.68
	86	8.7	-1.52735E-001	-2.02827E-001	-1.77781E-001	1.77032E-008	-1.59824E-008	3.36856E-008	-2.03000E-001	4.16706E-004	6	..........a	-327.68
	87	8.8	-1.50845E-001	-2.00784E-001	-1.75815E-001	1.76602E-008	-1.57091E-008	3.33692E-008	-2.01000E-001	4.12039E-004	6	..........a	-327.68
	88	8.9	-1.48836E-001	-1.98856E-001	-1.73846E-001	1.78045E-008	-1.56871E-008	3.34916E-008	-1.99000E-001	3.96373E-004	6	..........a	-327.68
	89	9	-1.46831E-001	-1.96832E-001	-1.71832E-001	1.77265E-008	-1.55331E-008	3.32596E-008	-1.97000E-001	3.96706E-004	6	..........a	-327.68
	90	9.1	-1.44847E-001	-1.94840E-001	-1.69843E-001	1.78262E-008	-1.55947E-008	3.34209E-008	-1.95000E-001	3.88706E-004	6	..........a	-327.68
	91	9.2	-1.42863E-001	-1.92853E-001	-1.67858E-001	1.80502E-008	-1.53767E-008	3.34269E-008	-1.93000E-001	4.05039E-004	6	..........a	-327.68
	92	9.3	-1.40851E-001	-1.90854E-001	-1.65853E-001	1.79479E-008	-1.52394E-008	3.31872E-008	-1.91000E-001	3.94373E-004	6	..........a	-327.68
	93	9.4	-1.38807E-001	-1.88707E-001	-1.63757E-001	1.79662E-008	-1.51220E-008	3.30882E-008	-1.89000E-001	3.85206E-004	6	..........a	-327.68
	94	9.5	-1.36616E-001	-1.86836E-001	-1.61726E-001	1.80792E-008	-1.50383E-008	3.31175E-008	-1.87000E-001	4.03706E-004	6	..........a	-327.68
	95	9.6	-1.34875E-001	-1.84700E-001	-1.59787E-001	1.82329E-008	-1.51200E-008	3.33529E-008	-1.85000E-001	4.01539E-004	6	..........a	-327.68
	96	9.7	-1.32780E-001	-1.82844E-001	-1.57812E-001	1.82489E-008	-1.48983E-008	3.31472E-008	-1.83000E-001	4.16539E-004	6	..........a	-327.68
	97	9.8	-1.30810E-001	-1.80755E-001	-1.55783E-001	1.81719E-008	-1.48556E-008	3.30275E-008	-1.81000E-001	4.11373E-004	6	..........a	-327.68
	98	9.9	-1.28740E-001	-1.78819E-001	-1.53779E-001	1.84166E-008	-1.49070E-008	3.33236E-008	-1.79000E-001	4.07706E-004	6	..........a	-327.68
	99	10	-1.26866E-001	-1.76728E-001	-1.51797E-001	1.86350E-008	-1.47660E-008	3.34009E-008	-1.77000E-001	4.03706E-004	6	..........a	-327.68
	100	10.1	-1.24809E-001	-1.74862E-001	-1.49836E-001	1.85733E-008	-1.45719E-008	3.31452E-008	-1.75000E-001	4.00206E-004	6	..........a	-327.68
