EXPLAIN
TAG	SQUARE_WAVE
TITLE	LABEL	Square Wave Voltammetry	Test Identifier
DATE	LABEL	8/10/2020	Date
TIME	LABEL	13:19:37	Time
NOTES	NOTES	1	Notes...
	
PSTAT	PSTAT	REF600-24079	Potentiostat
VINIT	QUANT	-3.50000E-001	Initial E (V)
VFINAL	QUANT	-1.50000E-001	Final E (V)
STEPSIZE	QUANT	2.00000E+000	Step Size (mV)
TIMERRES	QUANT	3.33340E-005	&Timer Resolution
FREQUENCY	QUANT	2.50000E+001	Frequency (Hz)
PULSESIZE	QUANT	2.50000E+001	Pulse Size E (mV)
PULSEON	QUANT	4.00000E-002	Pulse &Time (s)
NOISEREJECT	TOGGLE	F	Noise Rejection
AREA	QUANT	2.00000E-002	Sample Area (cm^2)
IMODE	SELECTOR	1	I/E Range Mode
IRANGE	QUANT	1.00000E-003	Max Current (mA)
EQDELAY	IQUANT	10	Equil. Time (s)
IRCOMP	SELECTOR	0	IRComp
PFCOR	QUANT	5.00000E+001	PF Corr. (ohm)
CYCLES	IQUANT	101	C&ycles (#)
ELECTRODETYPE	SELECTOR	0	Electrode Type
STRIPPING	TOGGLE	F	Used for Stripping
POLARITY	TOGGLE	F	Signal Polarity
LINEFREQ	IQUANT	60	Line Frequency (Hz)
INTPERIOD	QUANT	3.3334E-005	Integration Period (s)
SEQUENCER	TOGGLE	TRUE	Run as Sequence
PSTATMODEL	IQUANT	4	Pstat Model
PSTATSECTION	LABEL	REF600-24079	Pstat Section
PSTATSERIALNO	LABEL	24079	Pstat Serial Number
CTRLMODE	IQUANT	1	Control Mode
ELECTROMETER	IQUANT	0	RE=0 or CS=1
IESTAB	IQUANT	2	I/E Stability
CASPEED	IQUANT	6	Control Amp Speed
CONVENTION	IQUANT	1	Current Convention
ICHRANGE	IQUANT	2	Ich Range
ICHRANGEMODE	TOGGLE	F	Ich Auto Range
ICHOFFSETENABLE	TOGGLE	F	Ich Offset Enable
ICHOFFSET	QUANT	0	Ich Offset (V)
ICHFILTER	IQUANT	2	Ich Filter
VCHRANGE	IQUANT	2	Vch Range
VCHRANGEMODE	TOGGLE	F	Vch Auto Range
VCHOFFSETENABLE	TOGGLE	F	Vch Offset Enable
VCHOFFSET	QUANT	0	Vch Offset (V)
VCHFILTER	IQUANT	2	Vch Filter
ACHRANGE	IQUANT	2	Ach Range
ACHOFFSETENABLE	TOGGLE	F	Ach Offset Enable
ACHOFFSET	QUANT	0	Ach Offset (V)
ACHFILTER	IQUANT	1	Ach Filter
IERANGELOWERLIMIT	IQUANT	1	I/E Range Lower Limit
IERANGEMODE	TOGGLE	F	I/E AutoRange
IERANGE	IQUANT	6	I/E Range
POSFEEDENABLE	TOGGLE	F	Positive Feedback IR Comp
POSFEEDRESISTANCE	QUANT	0	Positive Feedback Resistance (ohm)
ACHSELECT	IQUANT	0	Ach Select
SENSECABLEID	IQUANT	13	Sense Cable ID
PWRCABLEID	IQUANT	13	Power Cable ID
DCCALDATE	LABEL	6/30/2020	DC Calibration Date
ACCALDATE	LABEL	6/30/2020	AC Calibration Date
THERMOSELECT	IQUANT	1	Thermo Select
FRAMEWORKVERSION	LABEL	7.8.2	Framework Version
INSTRUMENTVERSION	LABEL	4.40	Instrument Version
CURVE	TABLE	101
	Pt	T	Vfwd	Vrev	Vstep	Ifwd	Irev	Idif	Sig	Ach	IERange	Over	Temp
	#	s	V	V	V	A	A	A	V	V	#	bits	deg C
	0	0.04	-3.24863E-001	-3.75465E-001	-3.50164E-001	-9.22226E-009	-1.20134E-007	1.10912E-007	-3.75000E-001	3.96456E-004	6	..........a	-327.68
	1	0.08	-3.22265E-001	-3.73473E-001	-3.47869E-001	6.52530E-008	-1.07776E-007	1.73029E-007	-3.73000E-001	3.60623E-004	6	..........a	-327.68
	2	0.12	-3.20268E-001	-3.71463E-001	-3.45865E-001	6.91994E-008	-1.04836E-007	1.74035E-007	-3.71000E-001	3.62289E-004	6	..........a	-327.68
	3	0.16	-3.18147E-001	-3.69352E-001	-3.43750E-001	7.18714E-008	-1.01313E-007	1.73185E-007	-3.69000E-001	3.68123E-004	6	..........a	-327.68
	4	0.2	-3.16271E-001	-3.67479E-001	-3.41875E-001	7.37750E-008	-9.99271E-008	1.73702E-007	-3.67000E-001	3.59789E-004	6	..........a	-327.68
	5	0.24	-3.14286E-001	-3.65494E-001	-3.39890E-001	7.40267E-008	-9.92470E-008	1.73274E-007	-3.65000E-001	3.49789E-004	6	..........a	-327.68
	6	0.28	-3.12251E-001	-3.63451E-001	-3.37851E-001	7.59227E-008	-9.73693E-008	1.73292E-007	-3.63000E-001	3.65206E-004	6	..........a	-327.68
	7	0.32	-3.10185E-001	-3.61381E-001	-3.35783E-001	7.58194E-008	-9.71693E-008	1.72989E-007	-3.61000E-001	3.64789E-004	6	..........a	-327.68
	8	0.36	-3.08247E-001	-3.59461E-001	-3.33854E-001	7.60944E-008	-9.53966E-008	1.71491E-007	-3.59000E-001	3.69789E-004	6	..........a	-327.68
	9	0.4	-3.06299E-001	-3.57500E-001	-3.31900E-001	7.72579E-008	-9.49740E-008	1.72232E-007	-3.57000E-001	3.65206E-004	6	..........a	-327.68
	10	0.44	-3.04271E-001	-3.55476E-001	-3.29873E-001	7.74571E-008	-9.45256E-008	1.71983E-007	-3.55000E-001	3.53539E-004	6	..........a	-327.68
	11	0.48	-3.02237E-001	-3.53409E-001	-3.27823E-001	7.86381E-008	-9.31229E-008	1.71761E-007	-3.53000E-001	3.81873E-004	6	..........a	-327.68
	12	0.52	-3.00269E-001	-3.51468E-001	-3.25869E-001	7.82747E-008	-9.36872E-008	1.71962E-007	-3.51000E-001	3.66039E-004	6	..........a	-327.68
	13	0.56	-2.98270E-001	-3.49467E-001	-3.23869E-001	7.88481E-008	-9.17311E-008	1.70579E-007	-3.49000E-001	3.64789E-004	6	..........a	-327.68
	14	0.6	-2.96282E-001	-3.47465E-001	-3.21873E-001	7.99674E-008	-9.14761E-008	1.71443E-007	-3.47000E-001	3.61873E-004	6	..........a	-327.68
	15	0.64	-2.94199E-001	-3.45427E-001	-3.19813E-001	7.94190E-008	-9.14260E-008	1.70845E-007	-3.45000E-001	3.53539E-004	6	..........a	-327.68
	16	0.68	-2.92284E-001	-3.43468E-001	-3.17876E-001	8.07108E-008	-9.00150E-008	1.70726E-007	-3.43000E-001	3.73539E-004	6	..........a	-327.68
	17	0.72	-2.90309E-001	-3.41484E-001	-3.15897E-001	8.13818E-008	-9.05801E-008	1.71962E-007	-3.41000E-001	3.63123E-004	6	..........a	-327.68
	18	0.76	-2.88279E-001	-3.39480E-001	-3.13879E-001	8.14001E-008	-8.91708E-008	1.70571E-007	-3.39000E-001	3.59373E-004	6	..........a	-327.68
	19	0.8	-2.86196E-001	-3.37373E-001	-3.11785E-001	8.30111E-008	-8.94975E-008	1.72509E-007	-3.37000E-001	3.65623E-004	6	..........a	-327.68
	20	0.84	-2.84260E-001	-3.35446E-001	-3.09853E-001	8.27870E-008	-8.93333E-008	1.72120E-007	-3.35000E-001	3.67289E-004	6	..........a	-327.68
	21	0.88	-2.82264E-001	-3.33458E-001	-3.07861E-001	8.40813E-008	-8.79939E-008	1.72075E-007	-3.33000E-001	3.53956E-004	6	..........a	-327.68
	22	0.92	-2.80298E-001	-3.31460E-001	-3.05879E-001	8.38271E-008	-8.85832E-008	1.72410E-007	-3.31000E-001	3.70206E-004	6	..........a	-327.68
	23	0.96	-2.78209E-001	-3.29386E-001	-3.03798E-001	8.43421E-008	-8.75072E-008	1.71849E-007	-3.29000E-001	3.52289E-004	6	..........a	-327.68
	24	1	-2.76287E-001	-3.27460E-001	-3.01874E-001	8.56031E-008	-8.78031E-008	1.73406E-007	-3.27000E-001	3.51873E-004	6	..........a	-327.68
	25	1.04	-2.74291E-001	-3.25477E-001	-2.99884E-001	8.56973E-008	-8.76739E-008	1.73371E-007	-3.25000E-001	3.69789E-004	6	..........a	-327.68
	26	1.08	-2.72273E-001	-3.23449E-001	-2.97861E-001	8.70850E-008	-8.72030E-008	1.74288E-007	-3.23000E-001	3.86873E-004	6	..........a	-327.68
	27	1.12	-2.70251E-001	-3.21454E-001	-2.95853E-001	8.69983E-008	-8.78181E-008	1.74816E-007	-3.21000E-001	3.76039E-004	6	..........a	-327.68
	28	1.16	-2.68286E-001	-3.19451E-001	-2.93868E-001	8.73542E-008	-8.67396E-008	1.74094E-007	-3.19000E-001	3.65206E-004	6	..........a	-327.68
	29	1.2	-2.66304E-001	-3.17481E-001	-2.91892E-001	8.92511E-008	-8.75372E-008	1.76788E-007	-3.17000E-001	3.60206E-004	6	..........a	-327.68
	30	1.24	-2.64289E-001	-3.15463E-001	-2.89876E-001	8.88069E-008	-8.71480E-008	1.75955E-007	-3.15000E-001	3.54789E-004	6	..........a	-327.68
	31	1.28	-2.62233E-001	-3.13401E-001	-2.87817E-001	9.01521E-008	-8.65813E-008	1.76733E-007	-3.13000E-001	3.88539E-004	6	..........a	-327.68
	32	1.32	-2.60266E-001	-3.11458E-001	-2.85862E-001	9.04221E-008	-8.75281E-008	1.77950E-007	-3.11000E-001	3.54789E-004	6	..........a	-327.68
	33	1.36	-2.58280E-001	-3.09457E-001	-2.83869E-001	9.02904E-008	-8.67705E-008	1.77061E-007	-3.09000E-001	3.66456E-004	6	..........a	-327.68
	34	1.4	-2.56286E-001	-3.07446E-001	-2.81866E-001	9.19764E-008	-8.74555E-008	1.79432E-007	-3.07000E-001	3.67289E-004	6	..........a	-327.68
	35	1.44	-2.54209E-001	-3.05396E-001	-2.79803E-001	9.16589E-008	-8.79048E-008	1.79564E-007	-3.05000E-001	3.68123E-004	6	..........a	-327.68
	36	1.48	-2.52277E-001	-3.03457E-001	-2.77867E-001	9.26099E-008	-8.66746E-008	1.79284E-007	-3.03000E-001	3.79789E-004	6	..........a	-327.68
	37	1.52	-2.50283E-001	-3.01461E-001	-2.75872E-001	9.23332E-008	-8.76814E-008	1.80015E-007	-3.01000E-001	3.68956E-004	6	..........a	-327.68
	38	1.56	-2.48276E-001	-2.99449E-001	-2.73863E-001	9.27541E-008	-8.66079E-008	1.79362E-007	-2.99000E-001	3.50623E-004	6	..........a	-327.68
	39	1.6	-2.46229E-001	-2.97421E-001	-2.71825E-001	9.40109E-008	-8.73572E-008	1.81368E-007	-2.97000E-001	3.78956E-004	6	..........a	-327.68
	40	1.64	-2.44276E-001	-2.95456E-001	-2.69866E-001	9.28166E-008	-8.79264E-008	1.80743E-007	-2.95000E-001	3.56456E-004	6	..........a	-327.68
	41	1.68	-2.42316E-001	-2.93497E-001	-2.67906E-001	9.40367E-008	-8.67063E-008	1.80743E-007	-2.93000E-001	3.68539E-004	6	..........a	-327.68
	42	1.72	-2.40274E-001	-2.91433E-001	-2.65853E-001	9.34925E-008	-8.79556E-008	1.81448E-007	-2.91000E-001	3.76456E-004	6	..........a	-327.68
	43	1.76	-2.38234E-001	-2.89401E-001	-2.63818E-001	9.31349E-008	-8.68596E-008	1.79995E-007	-2.89000E-001	3.72706E-004	6	..........a	-327.68
	44	1.8	-2.36282E-001	-2.87471E-001	-2.61877E-001	9.38509E-008	-8.69671E-008	1.80818E-007	-2.87000E-001	3.64373E-004	6	..........a	-327.68
	45	1.84	-2.34278E-001	-2.85453E-001	-2.59866E-001	9.34375E-008	-8.72763E-008	1.80714E-007	-2.85000E-001	3.73539E-004	6	..........a	-327.68
	46	1.88	-2.32259E-001	-2.83435E-001	-2.57847E-001	9.37108E-008	-8.63354E-008	1.80046E-007	-2.83000E-001	3.73123E-004	6	..........a	-327.68
	47	1.92	-2.30202E-001	-2.81373E-001	-2.55787E-001	9.27199E-008	-8.69255E-008	1.79645E-007	-2.81000E-001	3.44789E-004	6	..........a	-327.68
	48	1.96	-2.28279E-001	-2.79446E-001	-2.53862E-001	9.23565E-008	-8.62837E-008	1.78640E-007	-2.79000E-001	3.67706E-004	6	..........a	-327.68
	49	2	-2.26290E-001	-2.77453E-001	-2.51871E-001	9.30966E-008	-8.60995E-008	1.79196E-007	-2.77000E-001	3.67706E-004	6	..........a	-327.68
	50	2.04	-2.24278E-001	-2.75450E-001	-2.49864E-001	9.21240E-008	-8.64854E-008	1.78609E-007	-2.75000E-001	3.55623E-004	6	..........a	-327.68
	51	2.08	-2.22222E-001	-2.73404E-001	-2.47813E-001	9.25474E-008	-8.52436E-008	1.77791E-007	-2.73000E-001	3.68539E-004	6	..........a	-327.68
	52	2.12	-2.20273E-001	-2.71458E-001	-2.45865E-001	9.23023E-008	-8.58728E-008	1.78175E-007	-2.71000E-001	3.60206E-004	6	..........a	-327.68
	53	2.16	-2.18267E-001	-2.69445E-001	-2.43856E-001	9.10755E-008	-8.44918E-008	1.75567E-007	-2.69000E-001	3.74789E-004	6	..........a	-327.68
	54	2.2	-2.16243E-001	-2.67432E-001	-2.41838E-001	9.16331E-008	-8.45793E-008	1.76212E-007	-2.67000E-001	3.64373E-004	6	..........a	-327.68
	55	2.24	-2.14191E-001	-2.65372E-001	-2.39782E-001	9.03037E-008	-8.47727E-008	1.75076E-007	-2.65000E-001	3.62706E-004	6	..........a	-327.68
	56	2.28	-2.12295E-001	-2.63475E-001	-2.37885E-001	9.10463E-008	-8.29975E-008	1.74044E-007	-2.63000E-001	3.75206E-004	6	..........a	-327.68
	57	2.32	-2.10292E-001	-2.61474E-001	-2.35883E-001	9.02904E-008	-8.33225E-008	1.73613E-007	-2.61000E-001	3.79373E-004	6	..........a	-327.68
	58	2.36	-2.08267E-001	-2.59438E-001	-2.33852E-001	8.91503E-008	-8.22941E-008	1.71444E-007	-2.59000E-001	3.74789E-004	6	..........a	-327.68
	59	2.4	-2.06211E-001	-2.57380E-001	-2.31796E-001	8.97795E-008	-8.25491E-008	1.72329E-007	-2.57000E-001	3.63956E-004	6	..........a	-327.68
	60	2.44	-2.04296E-001	-2.55460E-001	-2.29878E-001	8.85102E-008	-8.26666E-008	1.71177E-007	-2.55000E-001	3.64373E-004	6	..........a	-327.68
	61	2.48	-2.02292E-001	-2.53450E-001	-2.27871E-001	8.89794E-008	-8.08197E-008	1.69799E-007	-2.53000E-001	3.79373E-004	6	..........a	-327.68
	62	2.52	-2.00285E-001	-2.51440E-001	-2.25862E-001	8.81468E-008	-8.15131E-008	1.69660E-007	-2.51000E-001	3.61039E-004	6	..........a	-327.68
	63	2.56	-1.98230E-001	-2.49404E-001	-2.23817E-001	8.74867E-008	-8.01238E-008	1.67610E-007	-2.49000E-001	3.61873E-004	6	..........a	-327.68
	64	2.6	-1.96256E-001	-2.47449E-001	-2.21852E-001	8.83043E-008	-8.00321E-008	1.68336E-007	-2.47000E-001	3.73956E-004	6	..........a	-327.68
	65	2.64	-1.94269E-001	-2.45436E-001	-2.19853E-001	8.66474E-008	-8.01238E-008	1.66771E-007	-2.45000E-001	3.67706E-004	6	..........a	-327.68
	66	2.68	-1.92264E-001	-2.43432E-001	-2.17848E-001	8.74400E-008	-7.88253E-008	1.66265E-007	-2.43000E-001	3.72289E-004	6	..........a	-327.68
	67	2.72	-1.90149E-001	-2.41331E-001	-2.15740E-001	8.62766E-008	-7.87353E-008	1.65012E-007	-2.41000E-001	3.68956E-004	6	..........a	-327.68
	68	2.76	-1.88277E-001	-2.39456E-001	-2.13867E-001	8.56490E-008	-7.77326E-008	1.63382E-007	-2.39000E-001	3.59789E-004	6	..........a	-327.68
	69	2.8	-1.86300E-001	-2.37466E-001	-2.11883E-001	8.65974E-008	-7.81877E-008	1.64785E-007	-2.37000E-001	3.70206E-004	6	..........a	-327.68
	70	2.84	-1.84237E-001	-2.35426E-001	-2.09832E-001	8.55031E-008	-7.80718E-008	1.63575E-007	-2.35000E-001	3.56456E-004	6	..........a	-327.68
	71	2.88	-1.82186E-001	-2.33356E-001	-2.07771E-001	8.60615E-008	-7.61049E-008	1.62166E-007	-2.33000E-001	3.64373E-004	6	..........a	-327.68
	72	2.92	-1.80228E-001	-2.31430E-001	-2.05829E-001	8.55648E-008	-7.70084E-008	1.62573E-007	-2.31000E-001	3.80623E-004	6	..........a	-327.68
	73	2.96	-1.78286E-001	-2.29478E-001	-2.03882E-001	8.46489E-008	-7.61166E-008	1.60765E-007	-2.29000E-001	3.76039E-004	6	..........a	-327.68
	74	3	-1.76266E-001	-2.27442E-001	-2.01854E-001	8.56131E-008	-7.56382E-008	1.61251E-007	-2.27000E-001	3.89789E-004	6	..........a	-327.68
	75	3.04	-1.74196E-001	-2.25386E-001	-1.99791E-001	8.42713E-008	-7.54465E-008	1.59718E-007	-2.25000E-001	3.61456E-004	6	..........a	-327.68
	76	3.08	-1.72269E-001	-2.23429E-001	-1.97849E-001	8.48864E-008	-7.42005E-008	1.59087E-007	-2.23000E-001	3.76039E-004	6	..........a	-327.68
	77	3.12	-1.70257E-001	-2.21413E-001	-1.95835E-001	8.44197E-008	-7.46873E-008	1.59107E-007	-2.21000E-001	3.71039E-004	6	..........a	-327.68
	78	3.16	-1.68258E-001	-2.19430E-001	-1.93844E-001	8.39563E-008	-7.35629E-008	1.57519E-007	-2.19000E-001	3.69789E-004	6	..........a	-327.68
	79	3.2	-1.66193E-001	-2.17398E-001	-1.91796E-001	8.48897E-008	-7.33371E-008	1.58227E-007	-2.17000E-001	3.71039E-004	6	..........a	-327.68
	80	3.24	-1.64271E-001	-2.15457E-001	-1.89864E-001	8.34695E-008	-7.35938E-008	1.57063E-007	-2.15000E-001	3.66039E-004	6	..........a	-327.68
	81	3.28	-1.62308E-001	-2.13476E-001	-1.87892E-001	8.46005E-008	-7.21669E-008	1.56767E-007	-2.13000E-001	4.01873E-004	6	..........a	-327.68
	82	3.32	-1.60255E-001	-2.11439E-001	-1.85847E-001	8.42013E-008	-7.23336E-008	1.56535E-007	-2.11000E-001	3.60206E-004	6	..........a	-327.68
	83	3.36	-1.58198E-001	-2.09363E-001	-1.83780E-001	8.36337E-008	-7.15610E-008	1.55195E-007	-2.09000E-001	3.76873E-004	6	..........a	-327.68
	84	3.4	-1.56250E-001	-2.07446E-001	-1.81848E-001	8.50089E-008	-7.14543E-008	1.56463E-007	-2.07000E-001	3.82289E-004	6	..........a	-327.68
	85	3.44	-1.54270E-001	-2.05450E-001	-1.79860E-001	8.40396E-008	-7.14835E-008	1.55523E-007	-2.05000E-001	3.83539E-004	6	..........a	-327.68
	86	3.48	-1.52281E-001	-2.03448E-001	-1.77865E-001	8.48522E-008	-7.02459E-008	1.55098E-007	-2.03000E-001	3.80206E-004	6	..........a	-327.68
	87	3.52	-1.50210E-001	-2.01385E-001	-1.75797E-001	8.43271E-008	-7.07743E-008	1.55101E-007	-2.01000E-001	3.76456E-004	6	..........a	-327.68
	88	3.56	-1.48259E-001	-1.99446E-001	-1.73852E-001	8.37429E-008	-6.97216E-008	1.53465E-007	-1.99000E-001	3.62289E-004	6	..........a	-327.68
	89	3.6	-1.46250E-001	-1.97452E-001	-1.71851E-001	8.46547E-008	-6.92982E-008	1.53953E-007	-1.97000E-001	3.78123E-004	6	..........a	-327.68
	90	3.64	-1.44262E-001	-1.95436E-001	-1.69849E-001	8.37129E-008	-6.98783E-008	1.53591E-007	-1.95000E-001	3.85623E-004	6	..........a	-327.68
	91	3.68	-1.42244E-001	-1.93435E-001	-1.67840E-001	8.49122E-008	-6.83881E-008	1.53300E-007	-1.93000E-001	3.82289E-004	6	..........a	-327.68
	92	3.72	-1.40269E-001	-1.91438E-001	-1.65854E-001	8.47055E-008	-6.95141E-008	1.54220E-007	-1.91000E-001	3.68956E-004	6	..........a	-327.68
	93	3.76	-1.38293E-001	-1.89475E-001	-1.63884E-001	8.40688E-008	-6.82364E-008	1.52305E-007	-1.89000E-001	3.98956E-004	6	..........a	-327.68
	94	3.8	-1.36283E-001	-1.87454E-001	-1.61869E-001	8.53206E-008	-6.82548E-008	1.53575E-007	-1.87000E-001	3.86039E-004	6	..........a	-327.68
	95	3.84	-1.34208E-001	-1.85430E-001	-1.59819E-001	8.46389E-008	-6.88307E-008	1.53470E-007	-1.85000E-001	3.95623E-004	6	..........a	-327.68
	96	3.88	-1.32254E-001	-1.83432E-001	-1.57843E-001	8.52164E-008	-6.73830E-008	1.52599E-007	-1.83000E-001	3.78123E-004	6	..........a	-327.68
	97	3.92	-1.30259E-001	-1.81445E-001	-1.55852E-001	8.55590E-008	-6.80356E-008	1.53595E-007	-1.81000E-001	3.57706E-004	6	..........a	-327.68
	98	3.96	-1.28239E-001	-1.79414E-001	-1.53827E-001	8.50156E-008	-6.76230E-008	1.52639E-007	-1.79000E-001	3.73539E-004	6	..........a	-327.68
	99	4	-1.26192E-001	-1.77358E-001	-1.51775E-001	8.60307E-008	-6.73246E-008	1.53355E-007	-1.77000E-001	3.80623E-004	6	..........a	-327.68
	100	4.04	-1.24263E-001	-1.75441E-001	-1.49852E-001	8.50714E-008	-6.80897E-008	1.53161E-007	-1.75000E-001	3.95206E-004	6	..........a	-327.68
