EXPLAIN
TAG	SQUARE_WAVE
TITLE	LABEL	Square Wave Voltammetry	Test Identifier
DATE	LABEL	8/10/2020	Date
TIME	LABEL	17:58:20	Time
NOTES	NOTES	1	Notes...
	
PSTAT	PSTAT	REF600-24079	Potentiostat
VINIT	QUANT	-3.50000E-001	Initial E (V)
VFINAL	QUANT	-1.50000E-001	Final E (V)
STEPSIZE	QUANT	2.00000E+000	Step Size (mV)
TIMERRES	QUANT	3.33340E-005	&Timer Resolution
FREQUENCY	QUANT	1.00000E+002	Frequency (Hz)
PULSESIZE	QUANT	2.50000E+001	Pulse Size E (mV)
PULSEON	QUANT	1.00000E-002	Pulse &Time (s)
NOISEREJECT	TOGGLE	F	Noise Rejection
AREA	QUANT	2.00000E-002	Sample Area (cm^2)
IMODE	SELECTOR	1	I/E Range Mode
IRANGE	QUANT	1.00000E-002	Max Current (mA)
EQDELAY	IQUANT	10	Equil. Time (s)
IRCOMP	SELECTOR	0	IRComp
PFCOR	QUANT	5.00000E+001	PF Corr. (ohm)
CYCLES	IQUANT	101	C&ycles (#)
ELECTRODETYPE	SELECTOR	0	Electrode Type
STRIPPING	TOGGLE	F	Used for Stripping
POLARITY	TOGGLE	F	Signal Polarity
LINEFREQ	IQUANT	60	Line Frequency (Hz)
INTPERIOD	QUANT	3.3334E-005	Integration Period (s)
SEQUENCER	TOGGLE	TRUE	Run as Sequence
PSTATMODEL	IQUANT	4	Pstat Model
PSTATSECTION	LABEL	REF600-24079	Pstat Section
PSTATSERIALNO	LABEL	24079	Pstat Serial Number
CTRLMODE	IQUANT	1	Control Mode
ELECTROMETER	IQUANT	0	RE=0 or CS=1
IESTAB	IQUANT	2	I/E Stability
CASPEED	IQUANT	6	Control Amp Speed
CONVENTION	IQUANT	1	Current Convention
ICHRANGE	IQUANT	2	Ich Range
ICHRANGEMODE	TOGGLE	F	Ich Auto Range
ICHOFFSETENABLE	TOGGLE	F	Ich Offset Enable
ICHOFFSET	QUANT	0	Ich Offset (V)
ICHFILTER	IQUANT	2	Ich Filter
VCHRANGE	IQUANT	2	Vch Range
VCHRANGEMODE	TOGGLE	F	Vch Auto Range
VCHOFFSETENABLE	TOGGLE	F	Vch Offset Enable
VCHOFFSET	QUANT	0	Vch Offset (V)
VCHFILTER	IQUANT	2	Vch Filter
ACHRANGE	IQUANT	2	Ach Range
ACHOFFSETENABLE	TOGGLE	F	Ach Offset Enable
ACHOFFSET	QUANT	0	Ach Offset (V)
ACHFILTER	IQUANT	1	Ach Filter
IERANGELOWERLIMIT	IQUANT	1	I/E Range Lower Limit
IERANGEMODE	TOGGLE	F	I/E AutoRange
IERANGE	IQUANT	7	I/E Range
POSFEEDENABLE	TOGGLE	F	Positive Feedback IR Comp
POSFEEDRESISTANCE	QUANT	0	Positive Feedback Resistance (ohm)
ACHSELECT	IQUANT	0	Ach Select
SENSECABLEID	IQUANT	13	Sense Cable ID
PWRCABLEID	IQUANT	13	Power Cable ID
DCCALDATE	LABEL	6/30/2020	DC Calibration Date
ACCALDATE	LABEL	6/30/2020	AC Calibration Date
THERMOSELECT	IQUANT	1	Thermo Select
FRAMEWORKVERSION	LABEL	7.8.2	Framework Version
INSTRUMENTVERSION	LABEL	4.40	Instrument Version
CURVE	TABLE	101
	Pt	T	Vfwd	Vrev	Vstep	Ifwd	Irev	Idif	Sig	Ach	IERange	Over	Temp
	#	s	V	V	V	A	A	A	V	V	#	bits	deg C
	0	0.01	-3.24931E-001	-3.74536E-001	-3.49733E-001	-8.64497E-008	1.23746E-007	-2.10195E-007	-3.75000E-001	3.71039E-004	7	..........a	-327.68
	1	0.02	-3.23353E-001	-3.72564E-001	-3.47958E-001	-4.34964E-007	1.58550E-007	-5.93514E-007	-3.73000E-001	3.49373E-004	7	..........a	-327.68
	2	0.03	-3.21281E-001	-3.70569E-001	-3.45925E-001	-4.12161E-007	1.72986E-007	-5.85146E-007	-3.71000E-001	3.67706E-004	7	..........a	-327.68
	3	0.04	-3.19358E-001	-3.68581E-001	-3.43969E-001	-4.01093E-007	1.81053E-007	-5.82146E-007	-3.69000E-001	3.57706E-004	7	..........a	-327.68
	4	0.05	-3.17346E-001	-3.66524E-001	-3.41935E-001	-3.92925E-007	1.88354E-007	-5.81279E-007	-3.67000E-001	3.59373E-004	7	..........a	-327.68
	5	0.06	-3.15339E-001	-3.64541E-001	-3.39940E-001	-3.89924E-007	1.92322E-007	-5.82246E-007	-3.65000E-001	3.51039E-004	7	..........a	-327.68
	6	0.07	-3.13289E-001	-3.62536E-001	-3.37913E-001	-3.86324E-007	1.97989E-007	-5.84313E-007	-3.63000E-001	3.59373E-004	7	..........a	-327.68
	7	0.08	-3.11336E-001	-3.60534E-001	-3.35935E-001	-3.82657E-007	2.02423E-007	-5.85080E-007	-3.61000E-001	3.49373E-004	7	..........a	-327.68
	8	0.09	-3.09346E-001	-3.58466E-001	-3.33906E-001	-3.80456E-007	2.04790E-007	-5.85246E-007	-3.59000E-001	3.41039E-004	7	..........a	-327.68
	9	0.1	-3.07331E-001	-3.56509E-001	-3.31920E-001	-3.76956E-007	2.08257E-007	-5.85213E-007	-3.57000E-001	4.01039E-004	7	..........a	-327.68
	10	0.11	-3.05283E-001	-3.54524E-001	-3.29903E-001	-3.73122E-007	2.08157E-007	-5.81279E-007	-3.55000E-001	3.51039E-004	7	..........a	-327.68
	11	0.12	-3.03391E-001	-3.52571E-001	-3.27981E-001	-3.70822E-007	2.11324E-007	-5.82146E-007	-3.53000E-001	3.29373E-004	7	..........a	-327.68
	12	0.13	-3.01319E-001	-3.50536E-001	-3.25928E-001	-3.67521E-007	2.15425E-007	-5.82946E-007	-3.51000E-001	3.72706E-004	7	..........a	-327.68
	13	0.14	-2.99328E-001	-3.48528E-001	-3.23928E-001	-3.63921E-007	2.16125E-007	-5.80046E-007	-3.49000E-001	3.52706E-004	7	..........a	-327.68
	14	0.15	-2.97291E-001	-3.46511E-001	-3.21901E-001	-3.61487E-007	2.19525E-007	-5.81013E-007	-3.47000E-001	3.74373E-004	7	..........a	-327.68
	15	0.16	-2.95308E-001	-3.44569E-001	-3.19938E-001	-3.59887E-007	2.21226E-007	-5.81113E-007	-3.45000E-001	3.61039E-004	7	..........a	-327.68
	16	0.17	-2.93336E-001	-3.42451E-001	-3.17893E-001	-3.58253E-007	2.23593E-007	-5.81846E-007	-3.43000E-001	3.62706E-004	7	..........a	-327.68
	17	0.18	-2.91303E-001	-3.40518E-001	-3.15910E-001	-3.56487E-007	2.26926E-007	-5.83413E-007	-3.41000E-001	3.57706E-004	7	..........a	-327.68
	18	0.19	-2.89303E-001	-3.38533E-001	-3.13918E-001	-3.54320E-007	2.27093E-007	-5.81413E-007	-3.39000E-001	3.19373E-004	7	..........a	-327.68
	19	0.2	-2.87334E-001	-3.36556E-001	-3.11945E-001	-3.50186E-007	2.29427E-007	-5.79612E-007	-3.37000E-001	3.89373E-004	7	..........a	-327.68
	20	0.21	-2.85359E-001	-3.34494E-001	-3.09927E-001	-3.49286E-007	2.30227E-007	-5.79512E-007	-3.35000E-001	3.47706E-004	7	..........a	-327.68
	21	0.22	-2.83348E-001	-3.32481E-001	-3.07914E-001	-3.45318E-007	2.32894E-007	-5.78212E-007	-3.33000E-001	3.69373E-004	7	..........a	-327.68
	22	0.23	-2.81293E-001	-3.30531E-001	-3.05912E-001	-3.44352E-007	2.35161E-007	-5.79512E-007	-3.31000E-001	3.49373E-004	7	..........a	-327.68
	23	0.24	-2.79343E-001	-3.28534E-001	-3.03938E-001	-3.43285E-007	2.34527E-007	-5.77812E-007	-3.29000E-001	3.49373E-004	7	..........a	-327.68
	24	0.25	-2.77333E-001	-3.26509E-001	-3.01921E-001	-3.41951E-007	2.38228E-007	-5.80179E-007	-3.27000E-001	3.62706E-004	7	..........a	-327.68
	25	0.26	-2.75346E-001	-3.24526E-001	-2.99936E-001	-3.39117E-007	2.38195E-007	-5.77312E-007	-3.25000E-001	3.74373E-004	7	..........a	-327.68
	26	0.27	-2.73276E-001	-3.22531E-001	-2.97903E-001	-3.35650E-007	2.39428E-007	-5.75078E-007	-3.23000E-001	3.81039E-004	7	..........a	-327.68
	27	0.28	-2.71348E-001	-3.20556E-001	-2.95952E-001	-3.33950E-007	2.42495E-007	-5.76445E-007	-3.21000E-001	3.94373E-004	7	..........a	-327.68
	28	0.29	-2.69303E-001	-3.18454E-001	-2.93878E-001	-3.30816E-007	2.41295E-007	-5.72111E-007	-3.19000E-001	3.92706E-004	7	..........a	-327.68
	29	0.3	-2.67296E-001	-3.16453E-001	-2.91874E-001	-3.29816E-007	2.43162E-007	-5.72978E-007	-3.17000E-001	3.91039E-004	7	..........a	-327.68
	30	0.31	-2.65238E-001	-3.14579E-001	-2.89908E-001	-3.27983E-007	2.43395E-007	-5.71378E-007	-3.15000E-001	3.37706E-004	7	..........a	-327.68
	31	0.32	-2.63331E-001	-3.12559E-001	-2.87945E-001	-3.25482E-007	2.46362E-007	-5.71845E-007	-3.13000E-001	3.37706E-004	7	..........a	-327.68
	32	0.33	-2.61351E-001	-3.10479E-001	-2.85915E-001	-3.25116E-007	2.48863E-007	-5.73978E-007	-3.11000E-001	3.61039E-004	7	..........a	-327.68
	33	0.34	-2.59298E-001	-3.08484E-001	-2.83891E-001	-3.24315E-007	2.48129E-007	-5.72445E-007	-3.09000E-001	3.44373E-004	7	..........a	-327.68
	34	0.35	-2.57263E-001	-3.06551E-001	-2.81907E-001	-3.21448E-007	2.52496E-007	-5.73945E-007	-3.07000E-001	3.72706E-004	7	..........a	-327.68
	35	0.36	-2.55363E-001	-3.04528E-001	-2.79945E-001	-3.19348E-007	2.51130E-007	-5.70478E-007	-3.05000E-001	3.39373E-004	7	..........a	-327.68
	36	0.37	-2.53341E-001	-3.02539E-001	-2.77940E-001	-3.16214E-007	2.52230E-007	-5.68444E-007	-3.03000E-001	3.72706E-004	7	..........a	-327.68
	37	0.38	-2.51334E-001	-3.00509E-001	-2.75922E-001	-3.16148E-007	2.52230E-007	-5.68377E-007	-3.01000E-001	3.47706E-004	7	..........a	-327.68
	38	0.39	-2.49273E-001	-2.98566E-001	-2.73919E-001	-3.12881E-007	2.52196E-007	-5.65077E-007	-2.99000E-001	3.56039E-004	7	..........a	-327.68
	39	0.4	-2.47309E-001	-2.96559E-001	-2.71934E-001	-3.08247E-007	2.53697E-007	-5.61943E-007	-2.97000E-001	3.51039E-004	7	..........a	-327.68
	40	0.41	-2.45308E-001	-2.94549E-001	-2.69928E-001	-3.08113E-007	2.53797E-007	-5.61910E-007	-2.95000E-001	3.72706E-004	7	..........a	-327.68
	41	0.42	-2.43291E-001	-2.92471E-001	-2.67881E-001	-3.06180E-007	2.56697E-007	-5.62877E-007	-2.93000E-001	3.64373E-004	7	..........a	-327.68
	42	0.43	-2.41243E-001	-2.90559E-001	-2.65901E-001	-3.06780E-007	2.59097E-007	-5.65877E-007	-2.91000E-001	3.76039E-004	7	..........a	-327.68
	43	0.44	-2.39363E-001	-2.88589E-001	-2.63976E-001	-3.03479E-007	2.56130E-007	-5.59610E-007	-2.89000E-001	3.86039E-004	7	..........a	-327.68
	44	0.45	-2.37318E-001	-2.86471E-001	-2.61894E-001	-3.01112E-007	2.58164E-007	-5.59276E-007	-2.87000E-001	3.54373E-004	7	..........a	-327.68
	45	0.46	-2.35286E-001	-2.84486E-001	-2.59886E-001	-2.99612E-007	2.57430E-007	-5.57043E-007	-2.85000E-001	3.59373E-004	7	..........a	-327.68
	46	0.47	-2.33248E-001	-2.82544E-001	-2.57896E-001	-2.97812E-007	2.59197E-007	-5.57009E-007	-2.83000E-001	3.59373E-004	7	..........a	-327.68
	47	0.48	-2.31316E-001	-2.80531E-001	-2.55923E-001	-2.99379E-007	2.61798E-007	-5.61177E-007	-2.81000E-001	3.72706E-004	7	..........a	-327.68
	48	0.49	-2.29314E-001	-2.78503E-001	-2.53908E-001	-2.95745E-007	2.60064E-007	-5.55809E-007	-2.79000E-001	3.56039E-004	7	..........a	-327.68
	49	0.5	-2.27304E-001	-2.76524E-001	-2.51914E-001	-2.95712E-007	2.62598E-007	-5.58309E-007	-2.77000E-001	3.66039E-004	7	..........a	-327.68
	50	0.51	-2.25276E-001	-2.74536E-001	-2.49906E-001	-2.93945E-007	2.62498E-007	-5.56443E-007	-2.75000E-001	3.54373E-004	7	..........a	-327.68
	51	0.52	-2.23339E-001	-2.72544E-001	-2.47942E-001	-2.91911E-007	2.63631E-007	-5.55542E-007	-2.73000E-001	3.76039E-004	7	..........a	-327.68
	52	0.53	-2.21311E-001	-2.70533E-001	-2.45922E-001	-2.91111E-007	2.64131E-007	-5.55242E-007	-2.71000E-001	3.59373E-004	7	..........a	-327.68
	53	0.54	-2.19301E-001	-2.68486E-001	-2.43893E-001	-2.90511E-007	2.61498E-007	-5.52009E-007	-2.69000E-001	3.51039E-004	7	..........a	-327.68
	54	0.55	-2.17241E-001	-2.66556E-001	-2.41898E-001	-2.86944E-007	2.64631E-007	-5.51575E-007	-2.67000E-001	3.87706E-004	7	..........a	-327.68
	55	0.56	-2.15346E-001	-2.64578E-001	-2.39962E-001	-2.87044E-007	2.62531E-007	-5.49575E-007	-2.65000E-001	3.72706E-004	7	..........a	-327.68
	56	0.57	-2.13328E-001	-2.62499E-001	-2.37913E-001	-2.85210E-007	2.67098E-007	-5.52309E-007	-2.63000E-001	3.94373E-004	7	..........a	-327.68
	57	0.58	-2.11309E-001	-2.60498E-001	-2.35903E-001	-2.86377E-007	2.67165E-007	-5.53542E-007	-2.61000E-001	3.62706E-004	7	..........a	-327.68
	58	0.59	-2.09268E-001	-2.58516E-001	-2.33892E-001	-2.86644E-007	2.70366E-007	-5.57009E-007	-2.59000E-001	3.49373E-004	7	..........a	-327.68
	59	0.6	-2.07304E-001	-2.56533E-001	-2.31918E-001	-2.84277E-007	2.70032E-007	-5.54309E-007	-2.57000E-001	3.86039E-004	7	..........a	-327.68
	60	0.61	-2.05304E-001	-2.54519E-001	-2.29912E-001	-2.84910E-007	2.68732E-007	-5.53642E-007	-2.55000E-001	3.56039E-004	7	..........a	-327.68
	61	0.62	-2.03314E-001	-2.52488E-001	-2.27901E-001	-2.82610E-007	2.70432E-007	-5.53042E-007	-2.53000E-001	3.76039E-004	7	..........a	-327.68
	62	0.63	-2.01278E-001	-2.50526E-001	-2.25902E-001	-2.83443E-007	2.71032E-007	-5.54476E-007	-2.51000E-001	3.32706E-004	7	..........a	-327.68
	63	0.64	-1.99333E-001	-2.48546E-001	-2.23939E-001	-2.82843E-007	2.71699E-007	-5.54542E-007	-2.49000E-001	3.86039E-004	7	..........a	-327.68
	64	0.65	-1.97324E-001	-2.46524E-001	-2.21924E-001	-2.79143E-007	2.71766E-007	-5.50908E-007	-2.47000E-001	3.94373E-004	7	..........a	-327.68
	65	0.66	-1.95298E-001	-2.44546E-001	-2.19922E-001	-2.79276E-007	2.72666E-007	-5.51942E-007	-2.45000E-001	3.62706E-004	7	..........a	-327.68
	66	0.67	-1.93288E-001	-2.42551E-001	-2.17919E-001	-2.76342E-007	2.75900E-007	-5.52242E-007	-2.43000E-001	3.74373E-004	7	..........a	-327.68
	67	0.68	-1.91349E-001	-2.40573E-001	-2.15961E-001	-2.80309E-007	2.77300E-007	-5.57609E-007	-2.41000E-001	3.66039E-004	7	..........a	-327.68
	68	0.69	-1.89343E-001	-2.38498E-001	-2.13920E-001	-2.79576E-007	2.76600E-007	-5.56176E-007	-2.39000E-001	3.74373E-004	7	..........a	-327.68
	69	0.7	-1.87331E-001	-2.36508E-001	-2.11919E-001	-2.79176E-007	2.79200E-007	-5.58376E-007	-2.37000E-001	3.66039E-004	7	..........a	-327.68
	70	0.71	-1.85271E-001	-2.34536E-001	-2.09903E-001	-2.78409E-007	2.78167E-007	-5.56576E-007	-2.35000E-001	3.79373E-004	7	..........a	-327.68
	71	0.72	-1.83339E-001	-2.32541E-001	-2.07940E-001	-2.77242E-007	2.80300E-007	-5.57543E-007	-2.33000E-001	3.97706E-004	7	..........a	-327.68
	72	0.73	-1.81298E-001	-2.30463E-001	-2.05880E-001	-2.77509E-007	2.83401E-007	-5.60910E-007	-2.31000E-001	3.94373E-004	7	..........a	-327.68
	73	0.74	-1.79314E-001	-2.28466E-001	-2.03890E-001	-2.75842E-007	2.82834E-007	-5.58676E-007	-2.29000E-001	3.86039E-004	7	..........a	-327.68
	74	0.75	-1.77251E-001	-2.26538E-001	-2.01894E-001	-2.75676E-007	2.85801E-007	-5.61477E-007	-2.27000E-001	3.66039E-004	7	..........a	-327.68
	75	0.76	-1.75346E-001	-2.24526E-001	-1.99936E-001	-2.77109E-007	2.84567E-007	-5.61677E-007	-2.25000E-001	3.69373E-004	7	..........a	-327.68
	76	0.77	-1.73344E-001	-2.22509E-001	-1.97927E-001	-2.75909E-007	2.87235E-007	-5.63143E-007	-2.23000E-001	3.82706E-004	7	..........a	-327.68
	77	0.78	-1.71319E-001	-2.20484E-001	-1.95902E-001	-2.74075E-007	2.88301E-007	-5.62377E-007	-2.21000E-001	3.79373E-004	7	..........a	-327.68
	78	0.79	-1.69273E-001	-2.18531E-001	-1.93902E-001	-2.76276E-007	2.86968E-007	-5.63243E-007	-2.19000E-001	3.87706E-004	7	..........a	-327.68
	79	0.8	-1.67318E-001	-2.16556E-001	-1.91937E-001	-2.73509E-007	2.88668E-007	-5.62177E-007	-2.17000E-001	3.84373E-004	7	..........a	-327.68
	80	0.81	-1.65351E-001	-2.14426E-001	-1.89888E-001	-2.74542E-007	2.90268E-007	-5.64810E-007	-2.15000E-001	3.89373E-004	7	..........a	-327.68
	81	0.82	-1.63234E-001	-2.12518E-001	-1.87876E-001	-2.71708E-007	2.91368E-007	-5.63077E-007	-2.13000E-001	3.39373E-004	7	..........a	-327.68
	82	0.83	-1.61284E-001	-2.10539E-001	-1.85912E-001	-2.74275E-007	2.92735E-007	-5.67011E-007	-2.11000E-001	3.82706E-004	7	..........a	-327.68
	83	0.84	-1.59343E-001	-2.08541E-001	-1.83942E-001	-2.71975E-007	2.95302E-007	-5.67277E-007	-2.09000E-001	3.57706E-004	7	..........a	-327.68
	84	0.85	-1.57299E-001	-2.06453E-001	-1.81876E-001	-2.73875E-007	2.96669E-007	-5.70544E-007	-2.07000E-001	3.81039E-004	7	..........a	-327.68
	85	0.86	-1.55309E-001	-2.04499E-001	-1.79904E-001	-2.73209E-007	2.95869E-007	-5.69078E-007	-2.05000E-001	3.56039E-004	7	..........a	-327.68
	86	0.87	-1.53253E-001	-2.02528E-001	-1.77890E-001	-2.71575E-007	2.95402E-007	-5.66977E-007	-2.03000E-001	3.74373E-004	7	..........a	-327.68
	87	0.88	-1.51349E-001	-2.00543E-001	-1.75946E-001	-2.71008E-007	2.97803E-007	-5.68811E-007	-2.01000E-001	3.51039E-004	7	..........a	-327.68
	88	0.89	-1.49329E-001	-1.98503E-001	-1.73916E-001	-2.68975E-007	2.96202E-007	-5.65177E-007	-1.99000E-001	3.96039E-004	7	..........a	-327.68
	89	0.9	-1.47314E-001	-1.96496E-001	-1.71905E-001	-2.66741E-007	2.96936E-007	-5.63677E-007	-1.97000E-001	3.71039E-004	7	..........a	-327.68
	90	0.91	-1.45279E-001	-1.94533E-001	-1.69906E-001	-2.68708E-007	2.98803E-007	-5.67511E-007	-1.95000E-001	3.41039E-004	7	..........a	-327.68
	91	0.92	-1.43318E-001	-1.92536E-001	-1.67927E-001	-2.67408E-007	3.00370E-007	-5.67777E-007	-1.93000E-001	3.57706E-004	7	..........a	-327.68
	92	0.93	-1.41293E-001	-1.90423E-001	-1.65858E-001	-2.67641E-007	3.03837E-007	-5.71478E-007	-1.91000E-001	3.96039E-004	7	..........a	-327.68
	93	0.94	-1.39284E-001	-1.88458E-001	-1.63871E-001	-2.69275E-007	3.03570E-007	-5.72845E-007	-1.89000E-001	3.62706E-004	7	..........a	-327.68
	94	0.95	-1.37256E-001	-1.86524E-001	-1.61890E-001	-2.67041E-007	3.04870E-007	-5.71911E-007	-1.87000E-001	3.97706E-004	7	..........a	-327.68
	95	0.96	-1.35288E-001	-1.84543E-001	-1.59915E-001	-2.69675E-007	3.04237E-007	-5.73912E-007	-1.85000E-001	3.56039E-004	7	..........a	-327.68
	96	0.97	-1.33306E-001	-1.82431E-001	-1.57868E-001	-2.67674E-007	3.05337E-007	-5.73011E-007	-1.83000E-001	3.66039E-004	7	..........a	-327.68
	97	0.98	-1.31294E-001	-1.80471E-001	-1.55883E-001	-2.66408E-007	3.06137E-007	-5.72545E-007	-1.81000E-001	3.57706E-004	7	..........a	-327.68
	98	0.99	-1.29251E-001	-1.78508E-001	-1.53879E-001	-2.65007E-007	3.05370E-007	-5.70378E-007	-1.79000E-001	3.66039E-004	7	..........a	-327.68
	99	1	-1.27359E-001	-1.76494E-001	-1.51927E-001	-2.64941E-007	3.08671E-007	-5.73611E-007	-1.77000E-001	3.59373E-004	7	..........a	-327.68
	100	1.01	-1.25316E-001	-1.74479E-001	-1.49898E-001	-2.65641E-007	3.07571E-007	-5.73211E-007	-1.75000E-001	3.81039E-004	7	..........a	-327.68
