EXPLAIN
TAG	SQUARE_WAVE
TITLE	LABEL	Square Wave Voltammetry	Test Identifier
DATE	LABEL	8/10/2020	Date
TIME	LABEL	15:24:52	Time
NOTES	NOTES	1	Notes...
	
PSTAT	PSTAT	REF600-24079	Potentiostat
VINIT	QUANT	-3.50000E-001	Initial E (V)
VFINAL	QUANT	-1.50000E-001	Final E (V)
STEPSIZE	QUANT	2.00000E+000	Step Size (mV)
TIMERRES	QUANT	3.33340E-005	&Timer Resolution
FREQUENCY	QUANT	3.00000E+002	Frequency (Hz)
PULSESIZE	QUANT	2.50000E+001	Pulse Size E (mV)
PULSEON	QUANT	3.33333E-003	Pulse &Time (s)
NOISEREJECT	TOGGLE	F	Noise Rejection
AREA	QUANT	2.00000E-002	Sample Area (cm^2)
IMODE	SELECTOR	1	I/E Range Mode
IRANGE	QUANT	1.00000E-002	Max Current (mA)
EQDELAY	IQUANT	10	Equil. Time (s)
IRCOMP	SELECTOR	0	IRComp
PFCOR	QUANT	5.00000E+001	PF Corr. (ohm)
CYCLES	IQUANT	101	C&ycles (#)
ELECTRODETYPE	SELECTOR	0	Electrode Type
STRIPPING	TOGGLE	F	Used for Stripping
POLARITY	TOGGLE	F	Signal Polarity
LINEFREQ	IQUANT	60	Line Frequency (Hz)
INTPERIOD	QUANT	3.3334E-005	Integration Period (s)
SEQUENCER	TOGGLE	TRUE	Run as Sequence
PSTATMODEL	IQUANT	4	Pstat Model
PSTATSECTION	LABEL	REF600-24079	Pstat Section
PSTATSERIALNO	LABEL	24079	Pstat Serial Number
CTRLMODE	IQUANT	1	Control Mode
ELECTROMETER	IQUANT	0	RE=0 or CS=1
IESTAB	IQUANT	2	I/E Stability
CASPEED	IQUANT	6	Control Amp Speed
CONVENTION	IQUANT	1	Current Convention
ICHRANGE	IQUANT	2	Ich Range
ICHRANGEMODE	TOGGLE	F	Ich Auto Range
ICHOFFSETENABLE	TOGGLE	F	Ich Offset Enable
ICHOFFSET	QUANT	0	Ich Offset (V)
ICHFILTER	IQUANT	1	Ich Filter
VCHRANGE	IQUANT	2	Vch Range
VCHRANGEMODE	TOGGLE	F	Vch Auto Range
VCHOFFSETENABLE	TOGGLE	F	Vch Offset Enable
VCHOFFSET	QUANT	0	Vch Offset (V)
VCHFILTER	IQUANT	1	Vch Filter
ACHRANGE	IQUANT	2	Ach Range
ACHOFFSETENABLE	TOGGLE	F	Ach Offset Enable
ACHOFFSET	QUANT	0	Ach Offset (V)
ACHFILTER	IQUANT	1	Ach Filter
IERANGELOWERLIMIT	IQUANT	1	I/E Range Lower Limit
IERANGEMODE	TOGGLE	F	I/E AutoRange
IERANGE	IQUANT	7	I/E Range
POSFEEDENABLE	TOGGLE	F	Positive Feedback IR Comp
POSFEEDRESISTANCE	QUANT	0	Positive Feedback Resistance (ohm)
ACHSELECT	IQUANT	0	Ach Select
SENSECABLEID	IQUANT	13	Sense Cable ID
PWRCABLEID	IQUANT	13	Power Cable ID
DCCALDATE	LABEL	6/30/2020	DC Calibration Date
ACCALDATE	LABEL	6/30/2020	AC Calibration Date
THERMOSELECT	IQUANT	1	Thermo Select
FRAMEWORKVERSION	LABEL	7.8.2	Framework Version
INSTRUMENTVERSION	LABEL	4.40	Instrument Version
CURVE	TABLE	101
	Pt	T	Vfwd	Vrev	Vstep	Ifwd	Irev	Idif	Sig	Ach	IERange	Over	Temp
	#	s	V	V	V	A	A	A	V	V	#	bits	deg C
	0	0.003333	-3.27259E-001	-3.79789E-001	-3.53524E-001	-6.44756E-009	-7.47987E-006	7.47342E-006	-3.75000E-001	3.62706E-004	7	..........a	-327.68
	1	0.006667	-3.24519E-001	-3.75214E-001	-3.49867E-001	8.42740E-006	-8.45890E-006	1.68863E-005	-3.73000E-001	3.32706E-004	7	..........a	-327.68
	2	0.01	-3.23124E-001	-3.73179E-001	-3.48152E-001	8.34589E-006	-8.35038E-006	1.66963E-005	-3.71000E-001	3.42706E-004	7	..........a	-327.68
	3	0.013333	-3.21044E-001	-3.71209E-001	-3.46127E-001	8.36319E-006	-8.33028E-006	1.66935E-005	-3.69000E-001	3.72706E-004	7	..........a	-327.68
	4	0.016667	-3.18964E-001	-3.69194E-001	-3.44079E-001	8.36579E-006	-8.31678E-006	1.66826E-005	-3.67000E-001	3.12706E-004	7	..........a	-327.68
	5	0.02	-3.17019E-001	-3.67219E-001	-3.42119E-001	8.37709E-006	-8.30548E-006	1.66826E-005	-3.65000E-001	3.42706E-004	7	..........a	-327.68
	6	0.023333	-3.15054E-001	-3.65254E-001	-3.40154E-001	8.37929E-006	-8.29508E-006	1.66744E-005	-3.63000E-001	3.62706E-004	7	..........a	-327.68
	7	0.026667	-3.13054E-001	-3.63204E-001	-3.38129E-001	8.38750E-006	-8.28338E-006	1.66709E-005	-3.61000E-001	2.92706E-004	7	..........a	-327.68
	8	0.03	-3.11039E-001	-3.61174E-001	-3.36107E-001	8.38650E-006	-8.27768E-006	1.66642E-005	-3.59000E-001	3.37706E-004	7	..........a	-327.68
	9	0.033333	-3.09069E-001	-3.59259E-001	-3.34164E-001	8.39280E-006	-8.27587E-006	1.66687E-005	-3.57000E-001	3.72706E-004	7	..........a	-327.68
	10	0.036667	-3.07064E-001	-3.57234E-001	-3.32149E-001	8.39090E-006	-8.26247E-006	1.66534E-005	-3.55000E-001	3.77706E-004	7	..........a	-327.68
	11	0.04	-3.05059E-001	-3.55254E-001	-3.30157E-001	8.39160E-006	-8.25987E-006	1.66515E-005	-3.53000E-001	3.27706E-004	7	..........a	-327.68
	12	0.043333	-3.03039E-001	-3.53209E-001	-3.28124E-001	8.39120E-006	-8.25217E-006	1.66434E-005	-3.51000E-001	3.17706E-004	7	..........a	-327.68
	13	0.046667	-3.01029E-001	-3.51269E-001	-3.26149E-001	8.39580E-006	-8.24687E-006	1.66427E-005	-3.49000E-001	3.52706E-004	7	..........a	-327.68
	14	0.05	-2.99014E-001	-3.49284E-001	-3.24149E-001	8.39480E-006	-8.24307E-006	1.66379E-005	-3.47000E-001	3.62706E-004	7	..........a	-327.68
	15	0.053333	-2.97024E-001	-3.47199E-001	-3.22112E-001	8.39310E-006	-8.24217E-006	1.66353E-005	-3.45000E-001	2.87706E-004	7	..........a	-327.68
	16	0.056667	-2.95084E-001	-3.45169E-001	-3.20127E-001	8.39790E-006	-8.23507E-006	1.66330E-005	-3.43000E-001	3.17706E-004	7	..........a	-327.68
	17	0.06	-2.92969E-001	-3.43279E-001	-3.18124E-001	8.39520E-006	-8.23487E-006	1.66301E-005	-3.41000E-001	3.27706E-004	7	..........a	-327.68
	18	0.063333	-2.91014E-001	-3.41264E-001	-3.16139E-001	8.40240E-006	-8.23087E-006	1.66333E-005	-3.39000E-001	3.37706E-004	7	..........a	-327.68
	19	0.066667	-2.89039E-001	-3.39264E-001	-3.14152E-001	8.39930E-006	-8.22647E-006	1.66258E-005	-3.37000E-001	3.42706E-004	7	..........a	-327.68
	20	0.07	-2.87019E-001	-3.37244E-001	-3.12132E-001	8.40130E-006	-8.22497E-006	1.66263E-005	-3.35000E-001	3.57706E-004	7	..........a	-327.68
	21	0.073333	-2.84964E-001	-3.35234E-001	-3.10099E-001	8.40330E-006	-8.22387E-006	1.66272E-005	-3.33000E-001	3.52706E-004	7	..........a	-327.68
	22	0.076667	-2.83079E-001	-3.33209E-001	-3.08144E-001	8.40270E-006	-8.21767E-006	1.66204E-005	-3.31000E-001	3.42706E-004	7	..........a	-327.68
	23	0.08	-2.80964E-001	-3.31284E-001	-3.06124E-001	8.40520E-006	-8.21407E-006	1.66193E-005	-3.29000E-001	3.37706E-004	7	..........a	-327.68
	24	0.083333	-2.78984E-001	-3.29284E-001	-3.04134E-001	8.40920E-006	-8.21197E-006	1.66212E-005	-3.27000E-001	3.67706E-004	7	..........a	-327.68
	25	0.086667	-2.77054E-001	-3.27229E-001	-3.02142E-001	8.41000E-006	-8.20747E-006	1.66175E-005	-3.25000E-001	3.52706E-004	7	..........a	-327.68
	26	0.09	-2.75059E-001	-3.25244E-001	-3.00152E-001	8.41010E-006	-8.20847E-006	1.66186E-005	-3.23000E-001	2.92706E-004	7	..........a	-327.68
	27	0.093333	-2.73044E-001	-3.23234E-001	-2.98139E-001	8.41200E-006	-8.20376E-006	1.66158E-005	-3.21000E-001	3.17706E-004	7	..........a	-327.68
	28	0.096667	-2.71004E-001	-3.21254E-001	-2.96129E-001	8.41390E-006	-8.20146E-006	1.66154E-005	-3.19000E-001	3.77706E-004	7	..........a	-327.68
	29	0.1	-2.68999E-001	-3.19209E-001	-2.94104E-001	8.41440E-006	-8.19966E-006	1.66141E-005	-3.17000E-001	3.27706E-004	7	..........a	-327.68
	30	0.103333	-2.67049E-001	-3.17284E-001	-2.92167E-001	8.40910E-006	-8.20246E-006	1.66116E-005	-3.15000E-001	3.32706E-004	7	..........a	-327.68
	31	0.106667	-2.65044E-001	-3.15279E-001	-2.90162E-001	8.42000E-006	-8.19906E-006	1.66191E-005	-3.13000E-001	3.22706E-004	7	..........a	-327.68
	32	0.11	-2.63039E-001	-3.13254E-001	-2.88147E-001	8.41480E-006	-8.19656E-006	1.66114E-005	-3.11000E-001	3.07706E-004	7	..........a	-327.68
	33	0.113333	-2.61069E-001	-3.11249E-001	-2.86159E-001	8.42460E-006	-8.19456E-006	1.66192E-005	-3.09000E-001	3.02706E-004	7	..........a	-327.68
	34	0.116667	-2.59009E-001	-3.09254E-001	-2.84132E-001	8.42150E-006	-8.19456E-006	1.66161E-005	-3.07000E-001	3.17706E-004	7	..........a	-327.68
	35	0.12	-2.57014E-001	-3.07219E-001	-2.82117E-001	8.42620E-006	-8.19496E-006	1.66212E-005	-3.05000E-001	3.12706E-004	7	..........a	-327.68
	36	0.123333	-2.55039E-001	-3.05214E-001	-2.80127E-001	8.42400E-006	-8.18886E-006	1.66129E-005	-3.03000E-001	3.17706E-004	7	..........a	-327.68
	37	0.126667	-2.53029E-001	-3.03279E-001	-2.78154E-001	8.42890E-006	-8.19086E-006	1.66198E-005	-3.01000E-001	3.47706E-004	7	..........a	-327.68
	38	0.13	-2.51034E-001	-3.01164E-001	-2.76099E-001	8.43280E-006	-8.18586E-006	1.66187E-005	-2.99000E-001	3.77706E-004	7	..........a	-327.68
	39	0.133333	-2.49014E-001	-2.99219E-001	-2.74117E-001	8.43430E-006	-8.18726E-006	1.66216E-005	-2.97000E-001	3.52706E-004	7	..........a	-327.68
	40	0.136667	-2.47059E-001	-2.97254E-001	-2.72157E-001	8.43570E-006	-8.18086E-006	1.66166E-005	-2.95000E-001	4.02706E-004	7	..........a	-327.68
	41	0.14	-2.45064E-001	-2.95234E-001	-2.70149E-001	8.43720E-006	-8.18576E-006	1.66230E-005	-2.93000E-001	3.47706E-004	7	..........a	-327.68
	42	0.143333	-2.42979E-001	-2.93219E-001	-2.68099E-001	8.44010E-006	-8.18026E-006	1.66204E-005	-2.91000E-001	3.32706E-004	7	..........a	-327.68
	43	0.146667	-2.41034E-001	-2.91224E-001	-2.66129E-001	8.44110E-006	-8.18006E-006	1.66212E-005	-2.89000E-001	3.72706E-004	7	..........a	-327.68
	44	0.15	-2.38989E-001	-2.89234E-001	-2.64112E-001	8.44850E-006	-8.18036E-006	1.66289E-005	-2.87000E-001	3.37706E-004	7	..........a	-327.68
	45	0.153333	-2.37064E-001	-2.87189E-001	-2.62127E-001	8.44280E-006	-8.17906E-006	1.66219E-005	-2.85000E-001	3.47706E-004	7	..........a	-327.68
	46	0.156667	-2.35084E-001	-2.85239E-001	-2.60162E-001	8.45090E-006	-8.17646E-006	1.66274E-005	-2.83000E-001	3.42706E-004	7	..........a	-327.68
	47	0.16	-2.33034E-001	-2.83269E-001	-2.58152E-001	8.44510E-006	-8.17716E-006	1.66223E-005	-2.81000E-001	3.67706E-004	7	..........a	-327.68
	48	0.163333	-2.31029E-001	-2.81164E-001	-2.56097E-001	8.45851E-006	-8.17436E-006	1.66329E-005	-2.79000E-001	2.87706E-004	7	..........a	-327.68
	49	0.166667	-2.29049E-001	-2.79234E-001	-2.54142E-001	8.45171E-006	-8.17546E-006	1.66272E-005	-2.77000E-001	3.42706E-004	7	..........a	-327.68
	50	0.17	-2.27104E-001	-2.77234E-001	-2.52169E-001	8.45330E-006	-8.17466E-006	1.66280E-005	-2.75000E-001	3.62706E-004	7	..........a	-327.68
	51	0.173333	-2.25084E-001	-2.75199E-001	-2.50142E-001	8.45411E-006	-8.16836E-006	1.66225E-005	-2.73000E-001	3.07706E-004	7	..........a	-327.68
	52	0.176667	-2.23074E-001	-2.73209E-001	-2.48142E-001	8.45711E-006	-8.16676E-006	1.66239E-005	-2.71000E-001	3.62706E-004	7	..........a	-327.68
	53	0.18	-2.21069E-001	-2.71249E-001	-2.46159E-001	8.45741E-006	-8.16006E-006	1.66175E-005	-2.69000E-001	3.52706E-004	7	..........a	-327.68
	54	0.183333	-2.19059E-001	-2.69224E-001	-2.44142E-001	8.45661E-006	-8.15796E-006	1.66146E-005	-2.67000E-001	3.52706E-004	7	..........a	-327.68
	55	0.186667	-2.17069E-001	-2.67169E-001	-2.42119E-001	8.45481E-006	-8.15396E-006	1.66088E-005	-2.65000E-001	3.42706E-004	7	..........a	-327.68
	56	0.19	-2.15009E-001	-2.65259E-001	-2.40134E-001	8.45621E-006	-8.15346E-006	1.66097E-005	-2.63000E-001	2.97706E-004	7	..........a	-327.68
	57	0.193333	-2.13039E-001	-2.63219E-001	-2.38129E-001	8.45751E-006	-8.14926E-006	1.66068E-005	-2.61000E-001	3.12706E-004	7	..........a	-327.68
	58	0.196667	-2.11054E-001	-2.61194E-001	-2.36124E-001	8.45631E-006	-8.14506E-006	1.66014E-005	-2.59000E-001	3.67706E-004	7	..........a	-327.68
	59	0.2	-2.09079E-001	-2.59234E-001	-2.34157E-001	8.45701E-006	-8.14406E-006	1.66011E-005	-2.57000E-001	3.32706E-004	7	..........a	-327.68
	60	0.203333	-2.06994E-001	-2.57224E-001	-2.32109E-001	8.44780E-006	-8.14146E-006	1.65893E-005	-2.55000E-001	3.47706E-004	7	..........a	-327.68
	61	0.206667	-2.05089E-001	-2.55239E-001	-2.30164E-001	8.45350E-006	-8.13986E-006	1.65934E-005	-2.53000E-001	3.37706E-004	7	..........a	-327.68
	62	0.21	-2.03019E-001	-2.53239E-001	-2.28129E-001	8.44870E-006	-8.13726E-006	1.65860E-005	-2.51000E-001	3.32706E-004	7	..........a	-327.68
	63	0.213333	-2.01014E-001	-2.51204E-001	-2.26109E-001	8.45300E-006	-8.13286E-006	1.65859E-005	-2.49000E-001	3.32706E-004	7	..........a	-327.68
	64	0.216667	-1.99019E-001	-2.49254E-001	-2.24137E-001	8.44680E-006	-8.12975E-006	1.65766E-005	-2.47000E-001	2.92706E-004	7	..........a	-327.68
	65	0.22	-1.97064E-001	-2.47234E-001	-2.22149E-001	8.44460E-006	-8.12825E-006	1.65729E-005	-2.45000E-001	3.42706E-004	7	..........a	-327.68
	66	0.223333	-1.94994E-001	-2.45239E-001	-2.20117E-001	8.44240E-006	-8.12315E-006	1.65656E-005	-2.43000E-001	3.02706E-004	7	..........a	-327.68
	67	0.226667	-1.93009E-001	-2.43294E-001	-2.18152E-001	8.44390E-006	-8.12225E-006	1.65662E-005	-2.41000E-001	3.52706E-004	7	..........a	-327.68
	68	0.23	-1.91019E-001	-2.41284E-001	-2.16152E-001	8.44550E-006	-8.11755E-006	1.65631E-005	-2.39000E-001	3.57706E-004	7	..........a	-327.68
	69	0.233333	-1.88984E-001	-2.39239E-001	-2.14112E-001	8.44760E-006	-8.11665E-006	1.65643E-005	-2.37000E-001	3.42706E-004	7	..........a	-327.68
	70	0.236667	-1.86994E-001	-2.37284E-001	-2.12139E-001	8.44120E-006	-8.11405E-006	1.65553E-005	-2.35000E-001	2.97706E-004	7	..........a	-327.68
	71	0.24	-1.85054E-001	-2.35229E-001	-2.10142E-001	8.44260E-006	-8.11095E-006	1.65536E-005	-2.33000E-001	2.97706E-004	7	..........a	-327.68
	72	0.243333	-1.83054E-001	-2.33244E-001	-2.08149E-001	8.44290E-006	-8.10805E-006	1.65510E-005	-2.31000E-001	3.47706E-004	7	..........a	-327.68
	73	0.246667	-1.80999E-001	-2.31234E-001	-2.06117E-001	8.43880E-006	-8.10865E-006	1.65475E-005	-2.29000E-001	3.42706E-004	7	..........a	-327.68
	74	0.25	-1.78979E-001	-2.29264E-001	-2.04122E-001	8.44320E-006	-8.10505E-006	1.65483E-005	-2.27000E-001	3.22706E-004	7	..........a	-327.68
	75	0.253333	-1.77034E-001	-2.27219E-001	-2.02127E-001	8.43910E-006	-8.10515E-006	1.65443E-005	-2.25000E-001	3.32706E-004	7	..........a	-327.68
	76	0.256667	-1.74954E-001	-2.25214E-001	-2.00084E-001	8.44580E-006	-8.10795E-006	1.65538E-005	-2.23000E-001	3.42706E-004	7	..........a	-327.68
	77	0.26	-1.72999E-001	-2.23254E-001	-1.98127E-001	8.44040E-006	-8.10575E-006	1.65462E-005	-2.21000E-001	3.87706E-004	7	..........a	-327.68
	78	0.263333	-1.71004E-001	-2.21274E-001	-1.96139E-001	8.44130E-006	-8.10215E-006	1.65435E-005	-2.19000E-001	3.17706E-004	7	..........a	-327.68
	79	0.266667	-1.68999E-001	-2.19264E-001	-1.94132E-001	8.43850E-006	-8.09915E-006	1.65377E-005	-2.17000E-001	2.87706E-004	7	..........a	-327.68
	80	0.27	-1.66959E-001	-2.17264E-001	-1.92112E-001	8.44200E-006	-8.09885E-006	1.65409E-005	-2.15000E-001	3.67706E-004	7	..........a	-327.68
	81	0.273333	-1.64984E-001	-2.15239E-001	-1.90112E-001	8.43800E-006	-8.10035E-006	1.65384E-005	-2.13000E-001	3.12706E-004	7	..........a	-327.68
	82	0.276667	-1.62989E-001	-2.13284E-001	-1.88137E-001	8.44160E-006	-8.10055E-006	1.65422E-005	-2.11000E-001	3.82706E-004	7	..........a	-327.68
	83	0.28	-1.61029E-001	-2.11309E-001	-1.86169E-001	8.44620E-006	-8.09455E-006	1.65408E-005	-2.09000E-001	3.32706E-004	7	..........a	-327.68
	84	0.283333	-1.59004E-001	-2.09259E-001	-1.84132E-001	8.44480E-006	-8.09805E-006	1.65429E-005	-2.07000E-001	3.67706E-004	7	..........a	-327.68
	85	0.286667	-1.57029E-001	-2.07299E-001	-1.82164E-001	8.44470E-006	-8.09455E-006	1.65393E-005	-2.05000E-001	3.72706E-004	7	..........a	-327.68
	86	0.29	-1.54984E-001	-2.05284E-001	-1.80134E-001	8.44110E-006	-8.09675E-006	1.65379E-005	-2.03000E-001	3.52706E-004	7	..........a	-327.68
	87	0.293333	-1.53009E-001	-2.03279E-001	-1.78144E-001	8.44680E-006	-8.09405E-006	1.65409E-005	-2.01000E-001	3.12706E-004	7	..........a	-327.68
	88	0.296667	-1.51024E-001	-2.01304E-001	-1.76164E-001	8.44810E-006	-8.09825E-006	1.65464E-005	-1.99000E-001	3.37706E-004	7	..........a	-327.68
	89	0.3	-1.48969E-001	-1.99259E-001	-1.74114E-001	8.45961E-006	-8.09845E-006	1.65581E-005	-1.97000E-001	3.22706E-004	7	..........a	-327.68
	90	0.303333	-1.46959E-001	-1.97324E-001	-1.72142E-001	8.45070E-006	-8.09755E-006	1.65483E-005	-1.95000E-001	2.87706E-004	7	..........a	-327.68
	91	0.306667	-1.44974E-001	-1.95254E-001	-1.70114E-001	8.45221E-006	-8.09665E-006	1.65489E-005	-1.93000E-001	3.17706E-004	7	..........a	-327.68
	92	0.31	-1.42999E-001	-1.93309E-001	-1.68154E-001	8.45181E-006	-8.09925E-006	1.65511E-005	-1.91000E-001	3.72706E-004	7	..........a	-327.68
	93	0.313333	-1.40969E-001	-1.91204E-001	-1.66087E-001	8.45931E-006	-8.09965E-006	1.65590E-005	-1.89000E-001	3.52706E-004	7	..........a	-327.68
	94	0.316667	-1.39009E-001	-1.89284E-001	-1.64147E-001	8.45991E-006	-8.09925E-006	1.65592E-005	-1.87000E-001	3.32706E-004	7	..........a	-327.68
	95	0.32	-1.37044E-001	-1.87244E-001	-1.62144E-001	8.46291E-006	-8.10085E-006	1.65638E-005	-1.85000E-001	3.67706E-004	7	..........a	-327.68
	96	0.323333	-1.34974E-001	-1.85264E-001	-1.60119E-001	8.46671E-006	-8.10135E-006	1.65681E-005	-1.83000E-001	3.27706E-004	7	..........a	-327.68
	97	0.326667	-1.32984E-001	-1.83279E-001	-1.58132E-001	8.46801E-006	-8.10255E-006	1.65706E-005	-1.81000E-001	2.87706E-004	7	..........a	-327.68
	98	0.33	-1.31004E-001	-1.81309E-001	-1.56157E-001	8.47071E-006	-8.10215E-006	1.65729E-005	-1.79000E-001	3.22706E-004	7	..........a	-327.68
	99	0.333333	-1.29039E-001	-1.79209E-001	-1.54124E-001	8.47561E-006	-8.10615E-006	1.65818E-005	-1.77000E-001	3.32706E-004	7	..........a	-327.68
	100	0.336667	-1.26994E-001	-1.77289E-001	-1.52142E-001	8.47841E-006	-8.10425E-006	1.65827E-005	-1.75000E-001	3.37706E-004	7	..........a	-327.68
