EXPLAIN
TAG	SQUARE_WAVE
TITLE	LABEL	Square Wave Voltammetry	Test Identifier
DATE	LABEL	8/10/2020	Date
TIME	LABEL	15:20:30	Time
NOTES	NOTES	1	Notes...
	 STD3 0.1 fg/mL 08102
PSTAT	PSTAT	REF600-24079	Potentiostat
VINIT	QUANT	-3.50000E-001	Initial E (V)
VFINAL	QUANT	-1.50000E-001	Final E (V)
STEPSIZE	QUANT	2.00000E+000	Step Size (mV)
TIMERRES	QUANT	3.33340E-005	&Timer Resolution
FREQUENCY	QUANT	1.00000E+001	Frequency (Hz)
PULSESIZE	QUANT	2.50000E+001	Pulse Size E (mV)
PULSEON	QUANT	1.00000E-001	Pulse &Time (s)
NOISEREJECT	TOGGLE	F	Noise Rejection
AREA	QUANT	2.00000E-002	Sample Area (cm^2)
IMODE	SELECTOR	1	I/E Range Mode
IRANGE	QUANT	1.00000E-003	Max Current (mA)
EQDELAY	IQUANT	10	Equil. Time (s)
IRCOMP	SELECTOR	0	IRComp
PFCOR	QUANT	5.00000E+001	PF Corr. (ohm)
CYCLES	IQUANT	101	C&ycles (#)
ELECTRODETYPE	SELECTOR	0	Electrode Type
STRIPPING	TOGGLE	F	Used for Stripping
POLARITY	TOGGLE	F	Signal Polarity
LINEFREQ	IQUANT	60	Line Frequency (Hz)
INTPERIOD	QUANT	3.3334E-005	Integration Period (s)
SEQUENCER	TOGGLE	TRUE	Run as Sequence
PSTATMODEL	IQUANT	4	Pstat Model
PSTATSECTION	LABEL	REF600-24079	Pstat Section
PSTATSERIALNO	LABEL	24079	Pstat Serial Number
CTRLMODE	IQUANT	1	Control Mode
ELECTROMETER	IQUANT	0	RE=0 or CS=1
IESTAB	IQUANT	2	I/E Stability
CASPEED	IQUANT	6	Control Amp Speed
CONVENTION	IQUANT	1	Current Convention
ICHRANGE	IQUANT	2	Ich Range
ICHRANGEMODE	TOGGLE	F	Ich Auto Range
ICHOFFSETENABLE	TOGGLE	F	Ich Offset Enable
ICHOFFSET	QUANT	0	Ich Offset (V)
ICHFILTER	IQUANT	2	Ich Filter
VCHRANGE	IQUANT	2	Vch Range
VCHRANGEMODE	TOGGLE	F	Vch Auto Range
VCHOFFSETENABLE	TOGGLE	F	Vch Offset Enable
VCHOFFSET	QUANT	0	Vch Offset (V)
VCHFILTER	IQUANT	2	Vch Filter
ACHRANGE	IQUANT	2	Ach Range
ACHOFFSETENABLE	TOGGLE	F	Ach Offset Enable
ACHOFFSET	QUANT	0	Ach Offset (V)
ACHFILTER	IQUANT	1	Ach Filter
IERANGELOWERLIMIT	IQUANT	1	I/E Range Lower Limit
IERANGEMODE	TOGGLE	F	I/E AutoRange
IERANGE	IQUANT	6	I/E Range
POSFEEDENABLE	TOGGLE	F	Positive Feedback IR Comp
POSFEEDRESISTANCE	QUANT	0	Positive Feedback Resistance (ohm)
ACHSELECT	IQUANT	0	Ach Select
SENSECABLEID	IQUANT	13	Sense Cable ID
PWRCABLEID	IQUANT	13	Power Cable ID
DCCALDATE	LABEL	6/30/2020	DC Calibration Date
ACCALDATE	LABEL	6/30/2020	AC Calibration Date
THERMOSELECT	IQUANT	1	Thermo Select
FRAMEWORKVERSION	LABEL	7.8.2	Framework Version
INSTRUMENTVERSION	LABEL	4.40	Instrument Version
CURVE	TABLE	101
	Pt	T	Vfwd	Vrev	Vstep	Ifwd	Irev	Idif	Sig	Ach	IERange	Over	Temp
	#	s	V	V	V	A	A	A	V	V	#	bits	deg C
	0	0.1	-3.24844E-001	-3.74870E-001	-3.49857E-001	-5.56562E-008	-1.07890E-007	5.22336E-008	-3.75000E-001	4.04873E-004	6	..........a	-327.68
	1	0.2	-3.22836E-001	-3.72884E-001	-3.47860E-001	-4.22645E-008	-1.02255E-007	5.99903E-008	-3.73000E-001	3.90873E-004	6	..........a	-327.68
	2	0.3	-3.20863E-001	-3.70774E-001	-3.45819E-001	-3.92757E-008	-9.95021E-008	6.02263E-008	-3.71000E-001	3.75373E-004	6	..........a	-327.68
	3	0.4	-3.18899E-001	-3.68874E-001	-3.43886E-001	-3.75579E-008	-9.76372E-008	6.00793E-008	-3.69000E-001	3.67373E-004	6	..........a	-327.68
	4	0.5	-3.16852E-001	-3.66915E-001	-3.41884E-001	-3.59333E-008	-9.57249E-008	5.97916E-008	-3.67000E-001	3.69706E-004	6	..........a	-327.68
	5	0.6	-3.14874E-001	-3.64884E-001	-3.39879E-001	-3.48182E-008	-9.41531E-008	5.93349E-008	-3.65000E-001	3.71706E-004	6	..........a	-327.68
	6	0.7	-3.12890E-001	-3.62805E-001	-3.37848E-001	-3.38497E-008	-9.25972E-008	5.87475E-008	-3.63000E-001	3.80706E-004	6	..........a	-327.68
	7	0.8	-3.10890E-001	-3.60866E-001	-3.35878E-001	-3.27649E-008	-9.10893E-008	5.83244E-008	-3.61000E-001	3.81039E-004	6	..........a	-327.68
	8	0.9	-3.08822E-001	-3.58861E-001	-3.33842E-001	-3.17781E-008	-8.96862E-008	5.79080E-008	-3.59000E-001	3.73539E-004	6	..........a	-327.68
	9	1	-3.06834E-001	-3.56794E-001	-3.31814E-001	-3.05263E-008	-8.86484E-008	5.81221E-008	-3.57000E-001	3.82373E-004	6	..........a	-327.68
	10	1.1	-3.04866E-001	-3.54826E-001	-3.29846E-001	-2.97019E-008	-8.70882E-008	5.73863E-008	-3.55000E-001	3.78206E-004	6	..........a	-327.68
	11	1.2	-3.02889E-001	-3.52870E-001	-3.27880E-001	-2.86011E-008	-8.59533E-008	5.73523E-008	-3.53000E-001	3.83373E-004	6	..........a	-327.68
	12	1.3	-3.00869E-001	-3.50877E-001	-3.25873E-001	-2.78096E-008	-8.46148E-008	5.68052E-008	-3.51000E-001	3.73706E-004	6	..........a	-327.68
	13	1.4	-2.98844E-001	-3.48877E-001	-3.23861E-001	-2.67198E-008	-8.33824E-008	5.66625E-008	-3.49000E-001	3.78706E-004	6	..........a	-327.68
	14	1.5	-2.96865E-001	-3.46854E-001	-3.21859E-001	-2.59594E-008	-8.22905E-008	5.63312E-008	-3.47000E-001	3.69706E-004	6	..........a	-327.68
	15	1.6	-2.94862E-001	-3.44906E-001	-3.19884E-001	-2.47939E-008	-8.10337E-008	5.62398E-008	-3.45000E-001	3.75539E-004	6	..........a	-327.68
	16	1.7	-2.92736E-001	-3.42880E-001	-3.17808E-001	-2.39875E-008	-7.99609E-008	5.59735E-008	-3.43000E-001	3.82873E-004	6	..........a	-327.68
	17	1.8	-2.90832E-001	-3.40862E-001	-3.15847E-001	-2.32240E-008	-7.88691E-008	5.56451E-008	-3.41000E-001	3.72206E-004	6	..........a	-327.68
	18	1.9	-2.88912E-001	-3.38855E-001	-3.13884E-001	-2.21946E-008	-7.78477E-008	5.56531E-008	-3.39000E-001	3.78206E-004	6	..........a	-327.68
	19	2	-2.86869E-001	-3.36868E-001	-3.11868E-001	-2.13731E-008	-7.67372E-008	5.53640E-008	-3.37000E-001	3.72039E-004	6	..........a	-327.68
	20	2.1	-2.84836E-001	-3.34894E-001	-3.09865E-001	-2.03717E-008	-7.58361E-008	5.54644E-008	-3.35000E-001	4.09706E-004	6	..........a	-327.68
	21	2.2	-2.82807E-001	-3.32849E-001	-3.07828E-001	-1.96783E-008	-7.47399E-008	5.50617E-008	-3.33000E-001	3.97539E-004	6	..........a	-327.68
	22	2.3	-2.80891E-001	-3.30808E-001	-3.05849E-001	-1.86131E-008	-7.36798E-008	5.50667E-008	-3.31000E-001	3.93206E-004	6	..........a	-327.68
	23	2.4	-2.78875E-001	-3.28871E-001	-3.03873E-001	-1.77307E-008	-7.28573E-008	5.51267E-008	-3.29000E-001	3.89206E-004	6	..........a	-327.68
	24	2.5	-2.76810E-001	-3.26877E-001	-3.01843E-001	-1.70256E-008	-7.20239E-008	5.49983E-008	-3.27000E-001	3.90206E-004	6	..........a	-327.68
	25	2.6	-2.74834E-001	-3.24859E-001	-2.99847E-001	-1.59064E-008	-7.11048E-008	5.51984E-008	-3.25000E-001	4.10039E-004	6	..........a	-327.68
	26	2.7	-2.72867E-001	-3.22850E-001	-2.97858E-001	-1.51113E-008	-7.01800E-008	5.50687E-008	-3.23000E-001	3.81539E-004	6	..........a	-327.68
	27	2.8	-2.70854E-001	-3.20862E-001	-2.95858E-001	-1.40799E-008	-6.95899E-008	5.55101E-008	-3.21000E-001	4.06706E-004	6	..........a	-327.68
	28	2.9	-2.68857E-001	-3.18901E-001	-2.93879E-001	-1.30087E-008	-6.85691E-008	5.55604E-008	-3.19000E-001	3.77706E-004	6	..........a	-327.68
	29	3	-2.66792E-001	-3.16842E-001	-2.91817E-001	-1.22553E-008	-6.82041E-008	5.59488E-008	-3.17000E-001	3.87706E-004	6	..........a	-327.68
	30	3.1	-2.64898E-001	-3.14868E-001	-2.89883E-001	-1.12789E-008	-6.70776E-008	5.57988E-008	-3.15000E-001	3.92706E-004	6	..........a	-327.68
	31	3.2	-2.62904E-001	-3.12896E-001	-2.87900E-001	-1.05914E-008	-6.64685E-008	5.58771E-008	-3.13000E-001	4.14373E-004	6	..........a	-327.68
	32	3.3	-2.60750E-001	-3.10868E-001	-2.85809E-001	-9.68932E-009	-6.58471E-008	5.61578E-008	-3.11000E-001	3.96539E-004	6	..........a	-327.68
	33	3.4	-2.58827E-001	-3.08765E-001	-2.83796E-001	-8.79454E-009	-6.50697E-008	5.62752E-008	-3.09000E-001	3.97873E-004	6	..........a	-327.68
	34	3.5	-2.56846E-001	-3.06836E-001	-2.81841E-001	-8.08044E-009	-6.45613E-008	5.64809E-008	-3.07000E-001	4.07706E-004	6	..........a	-327.68
	35	3.6	-2.54898E-001	-3.04871E-001	-2.79884E-001	-7.44403E-009	-6.40379E-008	5.65939E-008	-3.05000E-001	4.09206E-004	6	..........a	-327.68
	36	3.7	-2.52838E-001	-3.02885E-001	-2.77861E-001	-6.38056E-009	-6.35575E-008	5.71769E-008	-3.03000E-001	4.06206E-004	6	..........a	-327.68
	37	3.8	-2.50824E-001	-3.00868E-001	-2.75846E-001	-5.76482E-009	-6.25577E-008	5.67929E-008	-3.01000E-001	4.06539E-004	6	..........a	-327.68
	38	3.9	-2.48867E-001	-2.98834E-001	-2.73850E-001	-5.18308E-009	-6.23540E-008	5.71709E-008	-2.99000E-001	4.04539E-004	6	..........a	-327.68
	39	4	-2.46858E-001	-2.96863E-001	-2.71860E-001	-4.31297E-009	-6.16143E-008	5.73013E-008	-2.97000E-001	4.06373E-004	6	..........a	-327.68
	40	4.1	-2.44872E-001	-2.94837E-001	-2.69854E-001	-3.81990E-009	-6.11349E-008	5.73150E-008	-2.95000E-001	3.92039E-004	6	..........a	-327.68
	41	4.2	-2.42783E-001	-2.92745E-001	-2.67764E-001	-3.31017E-009	-6.06238E-008	5.73136E-008	-2.93000E-001	4.02539E-004	6	..........a	-327.68
	42	4.3	-2.40863E-001	-2.90828E-001	-2.65845E-001	-2.69643E-009	-5.99600E-008	5.72636E-008	-2.91000E-001	4.15206E-004	6	..........a	-327.68
	43	4.4	-2.38911E-001	-2.88901E-001	-2.63906E-001	-1.93266E-009	-5.93763E-008	5.74436E-008	-2.89000E-001	4.01206E-004	6	..........a	-327.68
	44	4.5	-2.36861E-001	-2.86865E-001	-2.61863E-001	-1.59929E-009	-5.86635E-008	5.70643E-008	-2.87000E-001	4.11039E-004	6	..........a	-327.68
	45	4.6	-2.34809E-001	-2.84864E-001	-2.59836E-001	-1.08522E-009	-5.81018E-008	5.70166E-008	-2.85000E-001	3.87373E-004	6	..........a	-327.68
	46	4.7	-2.32845E-001	-2.82813E-001	-2.57829E-001	-5.38819E-010	-5.75841E-008	5.70453E-008	-2.83000E-001	3.87039E-004	6	..........a	-327.68
	47	4.8	-2.30871E-001	-2.80884E-001	-2.55877E-001	-3.30459E-010	-5.68003E-008	5.64699E-008	-2.81000E-001	3.93039E-004	6	..........a	-327.68
	48	4.9	-2.28785E-001	-2.78864E-001	-2.53824E-001	-2.08359E-012	-5.62896E-008	5.62875E-008	-2.79000E-001	3.88373E-004	6	..........a	-327.68
	49	5	-2.26811E-001	-2.76852E-001	-2.51831E-001	6.50333E-010	-5.55268E-008	5.61771E-008	-2.77000E-001	3.87206E-004	6	..........a	-327.68
	50	5.1	-2.24852E-001	-2.74838E-001	-2.49845E-001	6.60334E-010	-5.48354E-008	5.54957E-008	-2.75000E-001	3.69206E-004	6	..........a	-327.68
	51	5.2	-2.22857E-001	-2.72851E-001	-2.47854E-001	1.02971E-009	-5.42040E-008	5.52337E-008	-2.73000E-001	3.85206E-004	6	..........a	-327.68
	52	5.3	-2.20853E-001	-2.70843E-001	-2.45848E-001	1.27008E-009	-5.32915E-008	5.45616E-008	-2.71000E-001	3.86039E-004	6	..........a	-327.68
	53	5.4	-2.18839E-001	-2.68859E-001	-2.43849E-001	1.51078E-009	-5.26271E-008	5.41379E-008	-2.69000E-001	3.99539E-004	6	..........a	-327.68
	54	5.5	-2.16879E-001	-2.66783E-001	-2.41831E-001	1.98384E-009	-5.18317E-008	5.38155E-008	-2.67000E-001	3.80873E-004	6	..........a	-327.68
	55	5.6	-2.14871E-001	-2.64897E-001	-2.39884E-001	2.17086E-009	-5.12186E-008	5.33895E-008	-2.65000E-001	3.76373E-004	6	..........a	-327.68
	56	5.7	-2.12823E-001	-2.62898E-001	-2.37860E-001	2.45156E-009	-5.06149E-008	5.30664E-008	-2.63000E-001	3.82039E-004	6	..........a	-327.68
	57	5.8	-2.10858E-001	-2.60841E-001	-2.35850E-001	2.55191E-009	-4.97581E-008	5.23100E-008	-2.61000E-001	3.76873E-004	6	..........a	-327.68
	58	5.9	-2.08848E-001	-2.58820E-001	-2.33834E-001	2.85728E-009	-4.88443E-008	5.17016E-008	-2.59000E-001	3.70039E-004	6	..........a	-327.68
	59	6	-2.06880E-001	-2.56860E-001	-2.31870E-001	3.03197E-009	-4.81392E-008	5.11712E-008	-2.57000E-001	3.85373E-004	6	..........a	-327.68
	60	6.1	-2.04826E-001	-2.54894E-001	-2.29860E-001	3.45369E-009	-4.74261E-008	5.08798E-008	-2.55000E-001	3.74039E-004	6	..........a	-327.68
	61	6.2	-2.02801E-001	-2.52879E-001	-2.27840E-001	3.65205E-009	-4.66300E-008	5.02821E-008	-2.53000E-001	3.70373E-004	6	..........a	-327.68
	62	6.3	-2.00871E-001	-2.50834E-001	-2.25852E-001	3.91642E-009	-4.56789E-008	4.95953E-008	-2.51000E-001	3.61539E-004	6	..........a	-327.68
	63	6.4	-1.98891E-001	-2.48888E-001	-2.23889E-001	4.47149E-009	-4.49871E-008	4.94586E-008	-2.49000E-001	3.78873E-004	6	..........a	-327.68
	64	6.5	-1.96845E-001	-2.46865E-001	-2.21855E-001	4.74519E-009	-4.42604E-008	4.90056E-008	-2.47000E-001	3.62873E-004	6	..........a	-327.68
	65	6.6	-1.94838E-001	-2.44865E-001	-2.19852E-001	5.00755E-009	-4.36233E-008	4.86309E-008	-2.45000E-001	3.64706E-004	6	..........a	-327.68
	66	6.7	-1.92883E-001	-2.42788E-001	-2.17835E-001	5.24192E-009	-4.29035E-008	4.81455E-008	-2.43000E-001	3.66873E-004	6	..........a	-327.68
	67	6.8	-1.90892E-001	-2.40885E-001	-2.15889E-001	5.53495E-009	-4.21724E-008	4.77074E-008	-2.41000E-001	3.77706E-004	6	..........a	-327.68
	68	6.9	-1.88811E-001	-2.38898E-001	-2.13855E-001	6.02135E-009	-4.14340E-008	4.74554E-008	-2.39000E-001	3.69706E-004	6	..........a	-327.68
	69	7	-1.86816E-001	-2.36855E-001	-2.11836E-001	6.24204E-009	-4.10250E-008	4.72670E-008	-2.37000E-001	3.69039E-004	6	..........a	-327.68
	70	7.1	-1.84894E-001	-2.34809E-001	-2.09852E-001	6.52208E-009	-4.04206E-008	4.69426E-008	-2.35000E-001	3.76206E-004	6	..........a	-327.68
	71	7.2	-1.82863E-001	-2.32866E-001	-2.07864E-001	6.82045E-009	-3.95234E-008	4.63439E-008	-2.33000E-001	3.73706E-004	6	..........a	-327.68
	72	7.3	-1.80773E-001	-2.30856E-001	-2.05814E-001	7.26251E-009	-3.89514E-008	4.62139E-008	-2.31000E-001	3.78206E-004	6	..........a	-327.68
	73	7.4	-1.78791E-001	-2.28706E-001	-2.03748E-001	7.53621E-009	-3.86293E-008	4.61655E-008	-2.29000E-001	3.59373E-004	6	..........a	-327.68
	74	7.5	-1.76825E-001	-2.26825E-001	-2.01825E-001	7.66456E-009	-3.78516E-008	4.55161E-008	-2.27000E-001	3.75539E-004	6	..........a	-327.68
	75	7.6	-1.74878E-001	-2.24846E-001	-1.99862E-001	8.05761E-009	-3.73622E-008	4.54198E-008	-2.25000E-001	3.70706E-004	6	..........a	-327.68
	76	7.7	-1.72829E-001	-2.22867E-001	-1.97848E-001	8.34731E-009	-3.66434E-008	4.49907E-008	-2.23000E-001	3.71539E-004	6	..........a	-327.68
	77	7.8	-1.70815E-001	-2.20862E-001	-1.95838E-001	8.78370E-009	-3.60530E-008	4.48367E-008	-2.21000E-001	3.74873E-004	6	..........a	-327.68
	78	7.9	-1.68866E-001	-2.18850E-001	-1.93858E-001	8.75470E-009	-3.56203E-008	4.43750E-008	-2.19000E-001	3.66373E-004	6	..........a	-327.68
	79	8	-1.66882E-001	-2.16876E-001	-1.91879E-001	9.27110E-009	-3.51669E-008	4.44380E-008	-2.17000E-001	3.50873E-004	6	..........a	-327.68
	80	8.1	-1.64672E-001	-2.14876E-001	-1.89774E-001	9.77449E-009	-3.47505E-008	4.45250E-008	-2.15000E-001	3.65873E-004	6	..........a	-327.68
	81	8.2	-1.62810E-001	-2.12840E-001	-1.87825E-001	9.90551E-009	-3.41974E-008	4.41029E-008	-2.13000E-001	3.73206E-004	6	..........a	-327.68
	82	8.3	-1.60888E-001	-2.10869E-001	-1.85878E-001	1.02676E-008	-3.37947E-008	4.40623E-008	-2.11000E-001	3.76039E-004	6	..........a	-327.68
	83	8.4	-1.58871E-001	-2.08847E-001	-1.83859E-001	1.04903E-008	-3.32737E-008	4.37639E-008	-2.09000E-001	3.70039E-004	6	..........a	-327.68
	84	8.5	-1.56770E-001	-2.06875E-001	-1.81822E-001	1.06593E-008	-3.27463E-008	4.34055E-008	-2.07000E-001	3.70706E-004	6	..........a	-327.68
	85	8.6	-1.54771E-001	-2.04834E-001	-1.79802E-001	1.11660E-008	-3.23465E-008	4.35125E-008	-2.05000E-001	3.72873E-004	6	..........a	-327.68
	86	8.7	-1.52855E-001	-2.02815E-001	-1.77835E-001	1.15020E-008	-3.19375E-008	4.34395E-008	-2.03000E-001	3.50539E-004	6	..........a	-327.68
	87	8.8	-1.50864E-001	-2.00865E-001	-1.75864E-001	1.17084E-008	-3.16454E-008	4.33538E-008	-2.01000E-001	3.67373E-004	6	..........a	-327.68
	88	8.9	-1.48812E-001	-1.98879E-001	-1.73845E-001	1.17921E-008	-3.11440E-008	4.29361E-008	-1.99000E-001	3.76539E-004	6	..........a	-327.68
	89	9	-1.46827E-001	-1.96852E-001	-1.71839E-001	1.22211E-008	-3.09807E-008	4.32018E-008	-1.97000E-001	3.61039E-004	6	..........a	-327.68
	90	9.1	-1.44850E-001	-1.94851E-001	-1.69850E-001	1.24368E-008	-3.04846E-008	4.29215E-008	-1.95000E-001	3.60539E-004	6	..........a	-327.68
	91	9.2	-1.42886E-001	-1.92863E-001	-1.67875E-001	1.27702E-008	-2.99156E-008	4.26858E-008	-1.93000E-001	3.61373E-004	6	..........a	-327.68
	92	9.3	-1.40857E-001	-1.90898E-001	-1.65877E-001	1.30759E-008	-2.97419E-008	4.28178E-008	-1.91000E-001	3.68873E-004	6	..........a	-327.68
	93	9.4	-1.38757E-001	-1.88791E-001	-1.63774E-001	1.34036E-008	-2.92308E-008	4.26344E-008	-1.89000E-001	3.75539E-004	6	..........a	-327.68
	94	9.5	-1.36876E-001	-1.86830E-001	-1.61853E-001	1.34966E-008	-2.89678E-008	4.24644E-008	-1.87000E-001	3.61873E-004	6	..........a	-327.68
	95	9.6	-1.34896E-001	-1.84901E-001	-1.59898E-001	1.40544E-008	-2.87364E-008	4.27908E-008	-1.85000E-001	3.62373E-004	6	..........a	-327.68
	96	9.7	-1.32728E-001	-1.82866E-001	-1.57797E-001	1.39917E-008	-2.81610E-008	4.21527E-008	-1.83000E-001	3.67039E-004	6	..........a	-327.68
	97	9.8	-1.30795E-001	-1.80795E-001	-1.55795E-001	1.44694E-008	-2.79726E-008	4.24421E-008	-1.81000E-001	3.67706E-004	6	..........a	-327.68
	98	9.9	-1.28808E-001	-1.78820E-001	-1.53814E-001	1.45808E-008	-2.78020E-008	4.23827E-008	-1.79000E-001	3.59373E-004	6	..........a	-327.68
	99	10	-1.26890E-001	-1.76836E-001	-1.51863E-001	1.50282E-008	-2.72129E-008	4.22410E-008	-1.77000E-001	3.55539E-004	6	..........a	-327.68
	100	10.1	-1.24813E-001	-1.74870E-001	-1.49842E-001	1.52349E-008	-2.67892E-008	4.20240E-008	-1.75000E-001	3.67373E-004	6	..........a	-327.68
