EXPLAIN
TAG	SQUARE_WAVE
TITLE	LABEL	Square Wave Voltammetry	Test Identifier
DATE	LABEL	8/10/2020	Date
TIME	LABEL	16:41:56	Time
NOTES	NOTES	1	Notes...
	
PSTAT	PSTAT	REF600-24079	Potentiostat
VINIT	QUANT	-3.50000E-001	Initial E (V)
VFINAL	QUANT	-1.50000E-001	Final E (V)
STEPSIZE	QUANT	2.00000E+000	Step Size (mV)
TIMERRES	QUANT	3.33340E-005	&Timer Resolution
FREQUENCY	QUANT	5.00000E+002	Frequency (Hz)
PULSESIZE	QUANT	2.50000E+001	Pulse Size E (mV)
PULSEON	QUANT	2.00000E-003	Pulse &Time (s)
NOISEREJECT	TOGGLE	F	Noise Rejection
AREA	QUANT	2.00000E-002	Sample Area (cm^2)
IMODE	SELECTOR	1	I/E Range Mode
IRANGE	QUANT	1.00000E-002	Max Current (mA)
EQDELAY	IQUANT	10	Equil. Time (s)
IRCOMP	SELECTOR	0	IRComp
PFCOR	QUANT	5.00000E+001	PF Corr. (ohm)
CYCLES	IQUANT	101	C&ycles (#)
ELECTRODETYPE	SELECTOR	0	Electrode Type
STRIPPING	TOGGLE	F	Used for Stripping
POLARITY	TOGGLE	F	Signal Polarity
LINEFREQ	IQUANT	60	Line Frequency (Hz)
INTPERIOD	QUANT	3.3334E-005	Integration Period (s)
SEQUENCER	TOGGLE	TRUE	Run as Sequence
PSTATMODEL	IQUANT	4	Pstat Model
PSTATSECTION	LABEL	REF600-24079	Pstat Section
PSTATSERIALNO	LABEL	24079	Pstat Serial Number
CTRLMODE	IQUANT	1	Control Mode
ELECTROMETER	IQUANT	0	RE=0 or CS=1
IESTAB	IQUANT	2	I/E Stability
CASPEED	IQUANT	6	Control Amp Speed
CONVENTION	IQUANT	1	Current Convention
ICHRANGE	IQUANT	2	Ich Range
ICHRANGEMODE	TOGGLE	F	Ich Auto Range
ICHOFFSETENABLE	TOGGLE	F	Ich Offset Enable
ICHOFFSET	QUANT	0	Ich Offset (V)
ICHFILTER	IQUANT	1	Ich Filter
VCHRANGE	IQUANT	2	Vch Range
VCHRANGEMODE	TOGGLE	F	Vch Auto Range
VCHOFFSETENABLE	TOGGLE	F	Vch Offset Enable
VCHOFFSET	QUANT	0	Vch Offset (V)
VCHFILTER	IQUANT	1	Vch Filter
ACHRANGE	IQUANT	2	Ach Range
ACHOFFSETENABLE	TOGGLE	F	Ach Offset Enable
ACHOFFSET	QUANT	0	Ach Offset (V)
ACHFILTER	IQUANT	1	Ach Filter
IERANGELOWERLIMIT	IQUANT	1	I/E Range Lower Limit
IERANGEMODE	TOGGLE	F	I/E AutoRange
IERANGE	IQUANT	7	I/E Range
POSFEEDENABLE	TOGGLE	F	Positive Feedback IR Comp
POSFEEDRESISTANCE	QUANT	0	Positive Feedback Resistance (ohm)
ACHSELECT	IQUANT	0	Ach Select
SENSECABLEID	IQUANT	13	Sense Cable ID
PWRCABLEID	IQUANT	13	Power Cable ID
DCCALDATE	LABEL	6/30/2020	DC Calibration Date
ACCALDATE	LABEL	6/30/2020	AC Calibration Date
THERMOSELECT	IQUANT	1	Thermo Select
FRAMEWORKVERSION	LABEL	7.8.2	Framework Version
INSTRUMENTVERSION	LABEL	4.40	Instrument Version
CURVE	TABLE	101
	Pt	T	Vfwd	Vrev	Vstep	Ifwd	Irev	Idif	Sig	Ach	IERange	Over	Temp
	#	s	V	V	V	A	A	A	V	V	#	bits	deg C
	0	0.002	-3.23324E-001	-3.61541E-001	-3.42432E-001	-2.38833E-008	-1.20935E-005	1.20696E-005	-3.75000E-001	4.24373E-004	7	..........a	-327.68
	1	0.004	-3.39233E-001	-3.56658E-001	-3.47945E-001	8.39110E-006	-7.30488E-006	1.56960E-005	-3.73000E-001	3.24373E-004	7	..........a	-327.68
	2	0.006	-3.33741E-001	-3.54241E-001	-3.43991E-001	8.23491E-006	-8.04881E-006	1.62837E-005	-3.71000E-001	3.16039E-004	7	..........a	-327.68
	3	0.008	-3.32233E-001	-3.52466E-001	-3.42349E-001	8.12506E-006	-7.93246E-006	1.60575E-005	-3.69000E-001	3.24373E-004	7	..........a	-327.68
	4	0.01	-3.30099E-001	-3.50324E-001	-3.40212E-001	8.18907E-006	-7.91746E-006	1.61065E-005	-3.67000E-001	3.07706E-004	7	..........a	-327.68
	5	0.012	-3.28074E-001	-3.48424E-001	-3.38249E-001	8.19474E-006	-7.90262E-006	1.60974E-005	-3.65000E-001	2.57706E-004	7	..........a	-327.68
	6	0.014	-3.26124E-001	-3.46366E-001	-3.36245E-001	8.21024E-006	-7.89796E-006	1.61082E-005	-3.63000E-001	3.49373E-004	7	..........a	-327.68
	7	0.016	-3.24166E-001	-3.44449E-001	-3.34308E-001	8.21341E-006	-7.88246E-006	1.60959E-005	-3.61000E-001	3.16039E-004	7	..........a	-327.68
	8	0.018	-3.22058E-001	-3.42366E-001	-3.32212E-001	8.22441E-006	-7.88112E-006	1.61055E-005	-3.59000E-001	3.16039E-004	7	..........a	-327.68
	9	0.02	-3.20116E-001	-3.40474E-001	-3.30295E-001	8.23241E-006	-7.87012E-006	1.61025E-005	-3.57000E-001	3.07706E-004	7	..........a	-327.68
	10	0.022	-3.18149E-001	-3.38482E-001	-3.28316E-001	8.23758E-006	-7.86212E-006	1.60997E-005	-3.55000E-001	2.74373E-004	7	..........a	-327.68
	11	0.024	-3.16091E-001	-3.36366E-001	-3.26228E-001	8.24274E-006	-7.86095E-006	1.61037E-005	-3.53000E-001	2.49373E-004	7	..........a	-327.68
	12	0.026	-3.14057E-001	-3.34374E-001	-3.24216E-001	8.25091E-006	-7.84945E-006	1.61004E-005	-3.51000E-001	2.41039E-004	7	..........a	-327.68
	13	0.028	-3.12158E-001	-3.32424E-001	-3.22291E-001	8.25091E-006	-7.84678E-006	1.60977E-005	-3.49000E-001	3.32706E-004	7	..........a	-327.68
	14	0.03	-3.10091E-001	-3.30416E-001	-3.20253E-001	8.25558E-006	-7.84528E-006	1.61009E-005	-3.47000E-001	3.16039E-004	7	..........a	-327.68
	15	0.032	-3.08058E-001	-3.28424E-001	-3.18241E-001	8.25841E-006	-7.84162E-006	1.61000E-005	-3.45000E-001	3.49373E-004	7	..........a	-327.68
	16	0.034	-3.06016E-001	-3.26374E-001	-3.16195E-001	8.26025E-006	-7.83578E-006	1.60960E-005	-3.43000E-001	3.16039E-004	7	..........a	-327.68
	17	0.036	-3.04166E-001	-3.24432E-001	-3.14299E-001	8.26908E-006	-7.83128E-006	1.61004E-005	-3.41000E-001	2.91039E-004	7	..........a	-327.68
	18	0.038	-3.02174E-001	-3.22416E-001	-3.12295E-001	8.26675E-006	-7.82611E-006	1.60929E-005	-3.39000E-001	4.16039E-004	7	..........a	-327.68
	19	0.04	-3.00099E-001	-3.20266E-001	-3.10183E-001	8.27741E-006	-7.82178E-006	1.60992E-005	-3.37000E-001	2.99373E-004	7	..........a	-327.68
	20	0.042	-2.98166E-001	-3.18324E-001	-3.08245E-001	8.27575E-006	-7.82178E-006	1.60975E-005	-3.35000E-001	2.57706E-004	7	..........a	-327.68
	21	0.044	-2.96199E-001	-3.16324E-001	-3.06262E-001	8.27691E-006	-7.81645E-006	1.60934E-005	-3.33000E-001	2.57706E-004	7	..........a	-327.68
	22	0.046	-2.94074E-001	-3.14449E-001	-3.04262E-001	8.28408E-006	-7.81795E-006	1.61020E-005	-3.31000E-001	3.07706E-004	7	..........a	-327.68
	23	0.048	-2.92116E-001	-3.12407E-001	-3.02262E-001	8.28058E-006	-7.80528E-006	1.60859E-005	-3.29000E-001	2.99373E-004	7	..........a	-327.68
	24	0.05	-2.90099E-001	-3.10399E-001	-3.00249E-001	8.28741E-006	-7.80778E-006	1.60952E-005	-3.27000E-001	3.49373E-004	7	..........a	-327.68
	25	0.052	-2.88116E-001	-3.08441E-001	-2.98278E-001	8.28942E-006	-7.80011E-006	1.60895E-005	-3.25000E-001	3.24373E-004	7	..........a	-327.68
	26	0.054	-2.86158E-001	-3.06399E-001	-2.96278E-001	8.28992E-006	-7.80028E-006	1.60902E-005	-3.23000E-001	3.57706E-004	7	..........a	-327.68
	27	0.056	-2.84074E-001	-3.04441E-001	-2.94258E-001	8.29525E-006	-7.79961E-006	1.60949E-005	-3.21000E-001	2.99373E-004	7	..........a	-327.68
	28	0.058	-2.82066E-001	-3.02424E-001	-2.92245E-001	8.29642E-006	-7.79044E-006	1.60869E-005	-3.19000E-001	2.66039E-004	7	..........a	-327.68
	29	0.06	-2.80183E-001	-3.00441E-001	-2.90312E-001	8.29525E-006	-7.79328E-006	1.60885E-005	-3.17000E-001	2.99373E-004	7	..........a	-327.68
	30	0.062	-2.78116E-001	-2.98474E-001	-2.88295E-001	8.29992E-006	-7.78811E-006	1.60880E-005	-3.15000E-001	3.07706E-004	7	..........a	-327.68
	31	0.064	-2.76141E-001	-2.96341E-001	-2.86241E-001	8.30275E-006	-7.78127E-006	1.60840E-005	-3.13000E-001	3.74373E-004	7	..........a	-327.68
	32	0.066	-2.74182E-001	-2.94491E-001	-2.84337E-001	8.30442E-006	-7.78477E-006	1.60892E-005	-3.11000E-001	2.99373E-004	7	..........a	-327.68
	33	0.068	-2.72141E-001	-2.92358E-001	-2.82249E-001	8.30358E-006	-7.78227E-006	1.60859E-005	-3.09000E-001	2.74373E-004	7	..........a	-327.68
	34	0.07	-2.70099E-001	-2.90458E-001	-2.80278E-001	8.30508E-006	-7.77811E-006	1.60832E-005	-3.07000E-001	2.99373E-004	7	..........a	-327.68
	35	0.072	-2.68133E-001	-2.88458E-001	-2.78295E-001	8.30992E-006	-7.77111E-006	1.60810E-005	-3.05000E-001	3.32706E-004	7	..........a	-327.68
	36	0.074	-2.66133E-001	-2.86474E-001	-2.76303E-001	8.30742E-006	-7.77177E-006	1.60792E-005	-3.03000E-001	2.49373E-004	7	..........a	-327.68
	37	0.076	-2.64091E-001	-2.84399E-001	-2.74245E-001	8.31659E-006	-7.76927E-006	1.60859E-005	-3.01000E-001	3.24373E-004	7	..........a	-327.68
	38	0.078	-2.62132E-001	-2.82374E-001	-2.72253E-001	8.31625E-006	-7.76444E-006	1.60807E-005	-2.99000E-001	3.41039E-004	7	..........a	-327.68
	39	0.08	-2.60108E-001	-2.80383E-001	-2.70245E-001	8.31575E-006	-7.76477E-006	1.60805E-005	-2.97000E-001	2.82706E-004	7	..........a	-327.68
	40	0.082	-2.58141E-001	-2.78424E-001	-2.68283E-001	8.32142E-006	-7.76544E-006	1.60869E-005	-2.95000E-001	2.32706E-004	7	..........a	-327.68
	41	0.084	-2.56083E-001	-2.76507E-001	-2.66295E-001	8.31959E-006	-7.75677E-006	1.60764E-005	-2.93000E-001	2.99373E-004	7	..........a	-327.68
	42	0.086	-2.54108E-001	-2.74441E-001	-2.64274E-001	8.32425E-006	-7.75277E-006	1.60770E-005	-2.91000E-001	2.41039E-004	7	..........a	-327.68
	43	0.088	-2.52174E-001	-2.72391E-001	-2.62283E-001	8.32809E-006	-7.75410E-006	1.60822E-005	-2.89000E-001	3.82706E-004	7	..........a	-327.68
	44	0.09	-2.50124E-001	-2.70458E-001	-2.60291E-001	8.32876E-006	-7.74760E-006	1.60764E-005	-2.87000E-001	2.99373E-004	7	..........a	-327.68
	45	0.092	-2.48116E-001	-2.68416E-001	-2.58266E-001	8.33192E-006	-7.74710E-006	1.60790E-005	-2.85000E-001	3.24373E-004	7	..........a	-327.68
	46	0.094	-2.46033E-001	-2.66474E-001	-2.56253E-001	8.33276E-006	-7.74294E-006	1.60757E-005	-2.83000E-001	3.49373E-004	7	..........a	-327.68
	47	0.096	-2.44033E-001	-2.64441E-001	-2.54237E-001	8.32942E-006	-7.74060E-006	1.60700E-005	-2.81000E-001	3.16039E-004	7	..........a	-327.68
	48	0.098	-2.42124E-001	-2.62482E-001	-2.52303E-001	8.33742E-006	-7.73810E-006	1.60755E-005	-2.79000E-001	2.57706E-004	7	..........a	-327.68
	49	0.1	-2.39991E-001	-2.60399E-001	-2.50195E-001	8.33559E-006	-7.73227E-006	1.60679E-005	-2.77000E-001	2.74373E-004	7	..........a	-327.68
	50	0.102	-2.38108E-001	-2.58466E-001	-2.48287E-001	8.33676E-006	-7.73593E-006	1.60727E-005	-2.75000E-001	2.91039E-004	7	..........a	-327.68
	51	0.104	-2.36041E-001	-2.56416E-001	-2.46228E-001	8.34292E-006	-7.73127E-006	1.60742E-005	-2.73000E-001	3.74373E-004	7	..........a	-327.68
	52	0.106	-2.34049E-001	-2.54432E-001	-2.44241E-001	8.33959E-006	-7.72577E-006	1.60654E-005	-2.71000E-001	2.49373E-004	7	..........a	-327.68
	53	0.108	-2.32149E-001	-2.52399E-001	-2.42274E-001	8.34526E-006	-7.72560E-006	1.60709E-005	-2.69000E-001	3.07706E-004	7	..........a	-327.68
	54	0.11	-2.30058E-001	-2.50366E-001	-2.40212E-001	8.34642E-006	-7.72260E-006	1.60690E-005	-2.67000E-001	3.16039E-004	7	..........a	-327.68
	55	0.112	-2.28016E-001	-2.48458E-001	-2.38237E-001	8.34759E-006	-7.71693E-006	1.60645E-005	-2.65000E-001	3.32706E-004	7	..........a	-327.68
	56	0.114	-2.26091E-001	-2.46374E-001	-2.36233E-001	8.35126E-006	-7.71560E-006	1.60669E-005	-2.63000E-001	2.16039E-004	7	..........a	-327.68
	57	0.116	-2.24158E-001	-2.44466E-001	-2.34312E-001	8.34892E-006	-7.71343E-006	1.60624E-005	-2.61000E-001	3.32706E-004	7	..........a	-327.68
	58	0.118	-2.22049E-001	-2.42458E-001	-2.32253E-001	8.35192E-006	-7.71526E-006	1.60672E-005	-2.59000E-001	2.99373E-004	7	..........a	-327.68
	59	0.12	-2.20008E-001	-2.40349E-001	-2.30178E-001	8.35526E-006	-7.70960E-006	1.60649E-005	-2.57000E-001	2.91039E-004	7	..........a	-327.68
	60	0.122	-2.18041E-001	-2.38449E-001	-2.28245E-001	8.35576E-006	-7.70643E-006	1.60622E-005	-2.55000E-001	2.74373E-004	7	..........a	-327.68
	61	0.124	-2.16108E-001	-2.36466E-001	-2.26287E-001	8.36009E-006	-7.70876E-006	1.60689E-005	-2.53000E-001	3.07706E-004	7	..........a	-327.68
	62	0.126	-2.13991E-001	-2.34433E-001	-2.24212E-001	8.36126E-006	-7.70443E-006	1.60657E-005	-2.51000E-001	3.16039E-004	7	..........a	-327.68
	63	0.128	-2.12033E-001	-2.32408E-001	-2.22220E-001	8.35876E-006	-7.70260E-006	1.60614E-005	-2.49000E-001	3.41039E-004	7	..........a	-327.68
	64	0.13	-2.10108E-001	-2.30508E-001	-2.20308E-001	8.35859E-006	-7.69960E-006	1.60582E-005	-2.47000E-001	3.32706E-004	7	..........a	-327.68
	65	0.132	-2.08058E-001	-2.28458E-001	-2.18258E-001	8.35692E-006	-7.70176E-006	1.60587E-005	-2.45000E-001	3.07706E-004	7	..........a	-327.68
	66	0.134	-2.06074E-001	-2.26474E-001	-2.16274E-001	8.36359E-006	-7.69943E-006	1.60630E-005	-2.43000E-001	3.16039E-004	7	..........a	-327.68
	67	0.136	-2.03966E-001	-2.24441E-001	-2.14203E-001	8.36709E-006	-7.69643E-006	1.60635E-005	-2.41000E-001	3.57706E-004	7	..........a	-327.68
	68	0.138	-2.02141E-001	-2.22449E-001	-2.12295E-001	8.36726E-006	-7.69643E-006	1.60637E-005	-2.39000E-001	3.41039E-004	7	..........a	-327.68
	69	0.14	-2.00141E-001	-2.20416E-001	-2.10278E-001	8.37026E-006	-7.69843E-006	1.60687E-005	-2.37000E-001	2.49373E-004	7	..........a	-327.68
	70	0.142	-1.98141E-001	-2.18324E-001	-2.08233E-001	8.36659E-006	-7.69443E-006	1.60610E-005	-2.35000E-001	3.07706E-004	7	..........a	-327.68
	71	0.144	-1.96041E-001	-2.16408E-001	-2.06224E-001	8.36893E-006	-7.69276E-006	1.60617E-005	-2.33000E-001	2.49373E-004	7	..........a	-327.68
	72	0.146	-1.94091E-001	-2.14499E-001	-2.04295E-001	8.37026E-006	-7.69476E-006	1.60650E-005	-2.31000E-001	2.91039E-004	7	..........a	-327.68
	73	0.148	-1.92108E-001	-2.12491E-001	-2.02299E-001	8.37176E-006	-7.68643E-006	1.60582E-005	-2.29000E-001	3.16039E-004	7	..........a	-327.68
	74	0.15	-1.90141E-001	-2.10416E-001	-2.00278E-001	8.37343E-006	-7.68843E-006	1.60619E-005	-2.27000E-001	3.49373E-004	7	..........a	-327.68
	75	0.152	-1.88091E-001	-2.08416E-001	-1.98253E-001	8.37359E-006	-7.68493E-006	1.60585E-005	-2.25000E-001	3.49373E-004	7	..........a	-327.68
	76	0.154	-1.86058E-001	-2.06449E-001	-1.96253E-001	8.37509E-006	-7.69093E-006	1.60660E-005	-2.23000E-001	3.16039E-004	7	..........a	-327.68
	77	0.156	-1.84174E-001	-2.04424E-001	-1.94299E-001	8.37843E-006	-7.68559E-006	1.60640E-005	-2.21000E-001	3.66039E-004	7	..........a	-327.68
	78	0.158	-1.82024E-001	-2.02466E-001	-1.92245E-001	8.37676E-006	-7.68709E-006	1.60639E-005	-2.19000E-001	3.66039E-004	7	..........a	-327.68
	79	0.16	-1.80016E-001	-2.00458E-001	-1.90237E-001	8.37843E-006	-7.68509E-006	1.60635E-005	-2.17000E-001	3.24373E-004	7	..........a	-327.68
	80	0.162	-1.78074E-001	-1.98508E-001	-1.88291E-001	8.38276E-006	-7.68793E-006	1.60707E-005	-2.15000E-001	2.74373E-004	7	..........a	-327.68
	81	0.164	-1.76141E-001	-1.96424E-001	-1.86283E-001	8.38160E-006	-7.68143E-006	1.60630E-005	-2.13000E-001	2.74373E-004	7	..........a	-327.68
	82	0.166	-1.74074E-001	-1.94483E-001	-1.84278E-001	8.38643E-006	-7.67993E-006	1.60664E-005	-2.11000E-001	2.74373E-004	7	..........a	-327.68
	83	0.168	-1.72049E-001	-1.92341E-001	-1.82195E-001	8.38310E-006	-7.68526E-006	1.60684E-005	-2.09000E-001	3.07706E-004	7	..........a	-327.68
	84	0.17	-1.70041E-001	-1.90416E-001	-1.80228E-001	8.38443E-006	-7.68059E-006	1.60650E-005	-2.07000E-001	3.24373E-004	7	..........a	-327.68
	85	0.172	-1.68083E-001	-1.88458E-001	-1.78270E-001	8.38893E-006	-7.67759E-006	1.60665E-005	-2.05000E-001	2.91039E-004	7	..........a	-327.68
	86	0.174	-1.66091E-001	-1.86441E-001	-1.76266E-001	8.38576E-006	-7.67926E-006	1.60650E-005	-2.03000E-001	2.49373E-004	7	..........a	-327.68
	87	0.176	-1.64074E-001	-1.84341E-001	-1.74208E-001	8.39126E-006	-7.68059E-006	1.60719E-005	-2.01000E-001	3.57706E-004	7	..........a	-327.68
	88	0.178	-1.62124E-001	-1.82333E-001	-1.72228E-001	8.38526E-006	-7.67593E-006	1.60612E-005	-1.99000E-001	3.16039E-004	7	..........a	-327.68
	89	0.18	-1.60174E-001	-1.80474E-001	-1.70324E-001	8.39243E-006	-7.67576E-006	1.60682E-005	-1.97000E-001	3.49373E-004	7	..........a	-327.68
	90	0.182	-1.58016E-001	-1.78508E-001	-1.68262E-001	8.39043E-006	-7.67543E-006	1.60659E-005	-1.95000E-001	3.16039E-004	7	..........a	-327.68
	91	0.184	-1.56066E-001	-1.76391E-001	-1.66228E-001	8.39310E-006	-7.67076E-006	1.60639E-005	-1.93000E-001	3.24373E-004	7	..........a	-327.68
	92	0.186	-1.54008E-001	-1.74391E-001	-1.64199E-001	8.39877E-006	-7.67193E-006	1.60707E-005	-1.91000E-001	3.41039E-004	7	..........a	-327.68
	93	0.188	-1.52108E-001	-1.72374E-001	-1.62241E-001	8.39693E-006	-7.67026E-006	1.60672E-005	-1.89000E-001	3.66039E-004	7	..........a	-327.68
	94	0.19	-1.50066E-001	-1.70424E-001	-1.60245E-001	8.39926E-006	-7.67293E-006	1.60722E-005	-1.87000E-001	3.07706E-004	7	..........a	-327.68
	95	0.192	-1.48066E-001	-1.68416E-001	-1.58241E-001	8.39860E-006	-7.66993E-006	1.60685E-005	-1.85000E-001	3.24373E-004	7	..........a	-327.68
	96	0.194	-1.46058E-001	-1.66441E-001	-1.56249E-001	8.40226E-006	-7.66976E-006	1.60720E-005	-1.83000E-001	2.99373E-004	7	..........a	-327.68
	97	0.196	-1.44099E-001	-1.64433E-001	-1.54266E-001	8.40060E-006	-7.67059E-006	1.60712E-005	-1.81000E-001	2.57706E-004	7	..........a	-327.68
	98	0.198	-1.42074E-001	-1.62424E-001	-1.52249E-001	8.40210E-006	-7.66893E-006	1.60710E-005	-1.79000E-001	2.91039E-004	7	..........a	-327.68
	99	0.2	-1.40108E-001	-1.60441E-001	-1.50274E-001	8.40727E-006	-7.66559E-006	1.60729E-005	-1.77000E-001	3.24373E-004	7	..........a	-327.68
	100	0.202	-1.38058E-001	-1.58358E-001	-1.48208E-001	8.40710E-006	-7.66476E-006	1.60719E-005	-1.75000E-001	3.32706E-004	7	..........a	-327.68
