EXPLAIN
TAG	SQUARE_WAVE
TITLE	LABEL	Square Wave Voltammetry	Test Identifier
DATE	LABEL	8/10/2020	Date
TIME	LABEL	13:04:29	Time
NOTES	NOTES	1	Notes...
	
PSTAT	PSTAT	REF600-24079	Potentiostat
VINIT	QUANT	-3.50000E-001	Initial E (V)
VFINAL	QUANT	-1.50000E-001	Final E (V)
STEPSIZE	QUANT	2.00000E+000	Step Size (mV)
TIMERRES	QUANT	3.33340E-005	&Timer Resolution
FREQUENCY	QUANT	2.50000E+001	Frequency (Hz)
PULSESIZE	QUANT	2.50000E+001	Pulse Size E (mV)
PULSEON	QUANT	4.00000E-002	Pulse &Time (s)
NOISEREJECT	TOGGLE	F	Noise Rejection
AREA	QUANT	2.00000E-002	Sample Area (cm^2)
IMODE	SELECTOR	1	I/E Range Mode
IRANGE	QUANT	1.00000E-003	Max Current (mA)
EQDELAY	IQUANT	10	Equil. Time (s)
IRCOMP	SELECTOR	0	IRComp
PFCOR	QUANT	5.00000E+001	PF Corr. (ohm)
CYCLES	IQUANT	101	C&ycles (#)
ELECTRODETYPE	SELECTOR	0	Electrode Type
STRIPPING	TOGGLE	F	Used for Stripping
POLARITY	TOGGLE	F	Signal Polarity
LINEFREQ	IQUANT	60	Line Frequency (Hz)
INTPERIOD	QUANT	3.3334E-005	Integration Period (s)
SEQUENCER	TOGGLE	TRUE	Run as Sequence
PSTATMODEL	IQUANT	4	Pstat Model
PSTATSECTION	LABEL	REF600-24079	Pstat Section
PSTATSERIALNO	LABEL	24079	Pstat Serial Number
CTRLMODE	IQUANT	1	Control Mode
ELECTROMETER	IQUANT	0	RE=0 or CS=1
IESTAB	IQUANT	2	I/E Stability
CASPEED	IQUANT	6	Control Amp Speed
CONVENTION	IQUANT	1	Current Convention
ICHRANGE	IQUANT	2	Ich Range
ICHRANGEMODE	TOGGLE	F	Ich Auto Range
ICHOFFSETENABLE	TOGGLE	F	Ich Offset Enable
ICHOFFSET	QUANT	0	Ich Offset (V)
ICHFILTER	IQUANT	2	Ich Filter
VCHRANGE	IQUANT	2	Vch Range
VCHRANGEMODE	TOGGLE	F	Vch Auto Range
VCHOFFSETENABLE	TOGGLE	F	Vch Offset Enable
VCHOFFSET	QUANT	0	Vch Offset (V)
VCHFILTER	IQUANT	2	Vch Filter
ACHRANGE	IQUANT	2	Ach Range
ACHOFFSETENABLE	TOGGLE	F	Ach Offset Enable
ACHOFFSET	QUANT	0	Ach Offset (V)
ACHFILTER	IQUANT	1	Ach Filter
IERANGELOWERLIMIT	IQUANT	1	I/E Range Lower Limit
IERANGEMODE	TOGGLE	F	I/E AutoRange
IERANGE	IQUANT	6	I/E Range
POSFEEDENABLE	TOGGLE	F	Positive Feedback IR Comp
POSFEEDRESISTANCE	QUANT	0	Positive Feedback Resistance (ohm)
ACHSELECT	IQUANT	0	Ach Select
SENSECABLEID	IQUANT	13	Sense Cable ID
PWRCABLEID	IQUANT	13	Power Cable ID
DCCALDATE	LABEL	6/30/2020	DC Calibration Date
ACCALDATE	LABEL	6/30/2020	AC Calibration Date
THERMOSELECT	IQUANT	1	Thermo Select
FRAMEWORKVERSION	LABEL	7.8.2	Framework Version
INSTRUMENTVERSION	LABEL	4.40	Instrument Version
CURVE	TABLE	101
	Pt	T	Vfwd	Vrev	Vstep	Ifwd	Irev	Idif	Sig	Ach	IERange	Over	Temp
	#	s	V	V	V	A	A	A	V	V	#	bits	deg C
	0	0.04	-3.24848E-001	-3.75411E-001	-3.50130E-001	-5.96101E-009	-8.95275E-008	8.35665E-008	-3.75000E-001	4.34789E-004	6	..........a	-327.68
	1	0.08	-3.22328E-001	-3.73418E-001	-3.47873E-001	4.00373E-008	-7.99379E-008	1.19975E-007	-3.73000E-001	4.28539E-004	6	..........a	-327.68
	2	0.12	-3.20320E-001	-3.71393E-001	-3.45856E-001	4.55197E-008	-7.45172E-008	1.20037E-007	-3.71000E-001	4.21456E-004	6	..........a	-327.68
	3	0.16	-3.18212E-001	-3.69307E-001	-3.43759E-001	4.80667E-008	-7.31171E-008	1.21184E-007	-3.69000E-001	4.23956E-004	6	..........a	-327.68
	4	0.2	-3.16318E-001	-3.67418E-001	-3.41868E-001	4.89668E-008	-7.12527E-008	1.20219E-007	-3.67000E-001	4.13539E-004	6	..........a	-327.68
	5	0.24	-3.14359E-001	-3.65448E-001	-3.39904E-001	5.10621E-008	-6.99008E-008	1.20963E-007	-3.65000E-001	4.24373E-004	6	..........a	-327.68
	6	0.28	-3.12325E-001	-3.63376E-001	-3.37850E-001	5.13796E-008	-6.91432E-008	1.20523E-007	-3.63000E-001	4.15623E-004	6	..........a	-327.68
	7	0.32	-3.10261E-001	-3.61333E-001	-3.35797E-001	5.24656E-008	-6.74597E-008	1.19925E-007	-3.61000E-001	4.31039E-004	6	..........a	-327.68
	8	0.36	-3.08311E-001	-3.59389E-001	-3.33850E-001	5.35366E-008	-6.71413E-008	1.20678E-007	-3.59000E-001	4.22706E-004	6	..........a	-327.68
	9	0.4	-3.06363E-001	-3.57429E-001	-3.31896E-001	5.34866E-008	-6.61020E-008	1.19589E-007	-3.57000E-001	4.28123E-004	6	..........a	-327.68
	10	0.44	-3.04344E-001	-3.55398E-001	-3.29871E-001	5.57318E-008	-6.55778E-008	1.21310E-007	-3.55000E-001	4.34373E-004	6	..........a	-327.68
	11	0.48	-3.02299E-001	-3.53357E-001	-3.27828E-001	5.50392E-008	-6.56869E-008	1.20726E-007	-3.53000E-001	4.30623E-004	6	..........a	-327.68
	12	0.52	-3.00331E-001	-3.51409E-001	-3.25870E-001	5.60877E-008	-6.38367E-008	1.19924E-007	-3.51000E-001	4.33956E-004	6	..........a	-327.68
	13	0.56	-2.98335E-001	-3.49396E-001	-3.23866E-001	5.67861E-008	-6.42534E-008	1.21040E-007	-3.49000E-001	4.20623E-004	6	..........a	-327.68
	14	0.6	-2.96333E-001	-3.47399E-001	-3.21866E-001	5.66895E-008	-6.29716E-008	1.19661E-007	-3.47000E-001	4.16456E-004	6	..........a	-327.68
	15	0.64	-2.94257E-001	-3.45356E-001	-3.19806E-001	5.82797E-008	-6.27641E-008	1.21044E-007	-3.45000E-001	4.24789E-004	6	..........a	-327.68
	16	0.68	-2.92311E-001	-3.43396E-001	-3.17854E-001	5.82488E-008	-6.30716E-008	1.21320E-007	-3.43000E-001	4.25206E-004	6	..........a	-327.68
	17	0.72	-2.90353E-001	-3.41423E-001	-3.15888E-001	5.90223E-008	-6.17956E-008	1.20818E-007	-3.41000E-001	4.29373E-004	6	..........a	-327.68
	18	0.76	-2.88351E-001	-3.39381E-001	-3.13866E-001	6.02649E-008	-6.23565E-008	1.22621E-007	-3.39000E-001	4.18956E-004	6	..........a	-327.68
	19	0.8	-2.86235E-001	-3.37317E-001	-3.11776E-001	6.03249E-008	-6.16648E-008	1.21990E-007	-3.37000E-001	4.03539E-004	6	..........a	-327.68
	20	0.84	-2.84318E-001	-3.35396E-001	-3.09857E-001	6.23352E-008	-6.20090E-008	1.24344E-007	-3.35000E-001	4.25623E-004	6	..........a	-327.68
	21	0.88	-2.82327E-001	-3.33393E-001	-3.07860E-001	6.22327E-008	-6.20273E-008	1.24260E-007	-3.33000E-001	4.05623E-004	6	..........a	-327.68
	22	0.92	-2.80356E-001	-3.31375E-001	-3.05866E-001	6.31694E-008	-6.09455E-008	1.24115E-007	-3.31000E-001	4.29373E-004	6	..........a	-327.68
	23	0.96	-2.78274E-001	-3.29329E-001	-3.03801E-001	6.46496E-008	-6.16239E-008	1.26274E-007	-3.29000E-001	4.13539E-004	6	..........a	-327.68
	24	1	-2.76324E-001	-3.27401E-001	-3.01863E-001	6.44179E-008	-6.15164E-008	1.25934E-007	-3.27000E-001	4.06873E-004	6	..........a	-327.68
	25	1.04	-2.74327E-001	-3.25394E-001	-2.99861E-001	6.65149E-008	-6.11822E-008	1.27697E-007	-3.25000E-001	4.21873E-004	6	..........a	-327.68
	26	1.08	-2.72336E-001	-3.23391E-001	-2.97863E-001	6.65290E-008	-6.20331E-008	1.28562E-007	-3.23000E-001	4.27289E-004	6	..........a	-327.68
	27	1.12	-2.70321E-001	-3.21379E-001	-2.95850E-001	6.73475E-008	-6.14214E-008	1.28769E-007	-3.21000E-001	4.23539E-004	6	..........a	-327.68
	28	1.16	-2.68321E-001	-3.19407E-001	-2.93864E-001	6.89769E-008	-6.18406E-008	1.30817E-007	-3.19000E-001	4.21039E-004	6	..........a	-327.68
	29	1.2	-2.66373E-001	-3.17411E-001	-2.91892E-001	6.90627E-008	-6.17589E-008	1.30822E-007	-3.17000E-001	4.35206E-004	6	..........a	-327.68
	30	1.24	-2.64368E-001	-3.15395E-001	-2.89882E-001	7.05004E-008	-6.17364E-008	1.32237E-007	-3.15000E-001	4.20206E-004	6	..........a	-327.68
	31	1.28	-2.62284E-001	-3.13354E-001	-2.87819E-001	7.03404E-008	-6.30224E-008	1.33363E-007	-3.13000E-001	4.21873E-004	6	..........a	-327.68
	32	1.32	-2.60322E-001	-3.11401E-001	-2.85862E-001	7.11605E-008	-6.18473E-008	1.33008E-007	-3.11000E-001	4.32289E-004	6	..........a	-327.68
	33	1.36	-2.58343E-001	-3.09399E-001	-2.83871E-001	7.24923E-008	-6.33858E-008	1.35878E-007	-3.09000E-001	4.22289E-004	6	..........a	-327.68
	34	1.4	-2.56348E-001	-3.07371E-001	-2.81860E-001	7.23848E-008	-6.34600E-008	1.35845E-007	-3.07000E-001	4.25206E-004	6	..........a	-327.68
	35	1.44	-2.54276E-001	-3.05334E-001	-2.79805E-001	7.39783E-008	-6.33333E-008	1.37312E-007	-3.05000E-001	4.29373E-004	6	..........a	-327.68
	36	1.48	-2.52336E-001	-3.03396E-001	-2.77866E-001	7.37458E-008	-6.40409E-008	1.37787E-007	-3.03000E-001	4.16873E-004	6	..........a	-327.68
	37	1.52	-2.50358E-001	-3.01395E-001	-2.75877E-001	7.42725E-008	-6.34108E-008	1.37683E-007	-3.01000E-001	4.26873E-004	6	..........a	-327.68
	38	1.56	-2.48359E-001	-2.99390E-001	-2.73875E-001	7.52268E-008	-6.44284E-008	1.39655E-007	-2.99000E-001	4.23123E-004	6	..........a	-327.68
	39	1.6	-2.46306E-001	-2.97365E-001	-2.71836E-001	7.48226E-008	-6.47118E-008	1.39534E-007	-2.97000E-001	4.21039E-004	6	..........a	-327.68
	40	1.64	-2.44322E-001	-2.95398E-001	-2.69860E-001	7.59777E-008	-6.41434E-008	1.40121E-007	-2.95000E-001	4.22706E-004	6	..........a	-327.68
	41	1.68	-2.42372E-001	-2.93412E-001	-2.67892E-001	7.50151E-008	-6.54219E-008	1.40437E-007	-2.93000E-001	4.11456E-004	6	..........a	-327.68
	42	1.72	-2.40350E-001	-2.91371E-001	-2.65861E-001	7.50018E-008	-6.41884E-008	1.39190E-007	-2.91000E-001	4.06039E-004	6	..........a	-327.68
	43	1.76	-2.38275E-001	-2.89343E-001	-2.63809E-001	7.56077E-008	-6.56086E-008	1.41216E-007	-2.89000E-001	4.06456E-004	6	..........a	-327.68
	44	1.8	-2.36323E-001	-2.87406E-001	-2.61865E-001	7.46451E-008	-6.50160E-008	1.39661E-007	-2.87000E-001	4.05623E-004	6	..........a	-327.68
	45	1.84	-2.34343E-001	-2.85400E-001	-2.59871E-001	7.52418E-008	-6.44435E-008	1.39685E-007	-2.85000E-001	4.31456E-004	6	..........a	-327.68
	46	1.88	-2.32335E-001	-2.83354E-001	-2.57845E-001	7.40217E-008	-6.52052E-008	1.39227E-007	-2.83000E-001	4.24373E-004	6	..........a	-327.68
	47	1.92	-2.30274E-001	-2.81326E-001	-2.55800E-001	7.42725E-008	-6.42276E-008	1.38500E-007	-2.81000E-001	4.19789E-004	6	..........a	-327.68
	48	1.96	-2.28333E-001	-2.79395E-001	-2.53864E-001	7.42675E-008	-6.45793E-008	1.38847E-007	-2.79000E-001	4.20623E-004	6	..........a	-327.68
	49	2	-2.26351E-001	-2.77392E-001	-2.51871E-001	7.25865E-008	-6.45068E-008	1.37093E-007	-2.77000E-001	4.13123E-004	6	..........a	-327.68
	50	2.04	-2.24347E-001	-2.75367E-001	-2.49857E-001	7.33808E-008	-6.40376E-008	1.37418E-007	-2.75000E-001	4.11873E-004	6	..........a	-327.68
	51	2.08	-2.22286E-001	-2.73341E-001	-2.47813E-001	7.22164E-008	-6.43568E-008	1.36573E-007	-2.73000E-001	4.09373E-004	6	..........a	-327.68
	52	2.12	-2.20348E-001	-2.71396E-001	-2.45872E-001	7.15247E-008	-6.33150E-008	1.34840E-007	-2.71000E-001	4.23956E-004	6	..........a	-327.68
	53	2.16	-2.18321E-001	-2.69383E-001	-2.43852E-001	7.19356E-008	-6.32025E-008	1.35138E-007	-2.69000E-001	4.24373E-004	6	..........a	-327.68
	54	2.2	-2.16326E-001	-2.67348E-001	-2.41837E-001	7.02253E-008	-6.26332E-008	1.32859E-007	-2.67000E-001	4.26039E-004	6	..........a	-327.68
	55	2.24	-2.14251E-001	-2.65303E-001	-2.39777E-001	7.02795E-008	-6.17923E-008	1.32072E-007	-2.65000E-001	4.26456E-004	6	..........a	-327.68
	56	2.28	-2.12329E-001	-2.63407E-001	-2.37868E-001	6.89810E-008	-6.23532E-008	1.31334E-007	-2.63000E-001	4.21039E-004	6	..........a	-327.68
	57	2.32	-2.10353E-001	-2.61409E-001	-2.35881E-001	6.84035E-008	-6.03554E-008	1.28759E-007	-2.61000E-001	4.19789E-004	6	..........a	-327.68
	58	2.36	-2.08340E-001	-2.59361E-001	-2.33850E-001	6.84793E-008	-6.06871E-008	1.29166E-007	-2.59000E-001	4.20623E-004	6	..........a	-327.68
	59	2.4	-2.06265E-001	-2.57331E-001	-2.31798E-001	6.70474E-008	-6.01737E-008	1.27221E-007	-2.57000E-001	4.21456E-004	6	..........a	-327.68
	60	2.44	-2.04355E-001	-2.55402E-001	-2.29878E-001	6.77209E-008	-5.91561E-008	1.26877E-007	-2.55000E-001	4.36039E-004	6	..........a	-327.68
	61	2.48	-2.02362E-001	-2.53398E-001	-2.27880E-001	6.63974E-008	-5.91736E-008	1.25571E-007	-2.53000E-001	4.10623E-004	6	..........a	-327.68
	62	2.52	-2.00363E-001	-2.51384E-001	-2.25874E-001	6.56389E-008	-5.75209E-008	1.23160E-007	-2.51000E-001	4.17289E-004	6	..........a	-327.68
	63	2.56	-1.98317E-001	-2.49338E-001	-2.23827E-001	6.52172E-008	-5.78668E-008	1.23084E-007	-2.49000E-001	4.21456E-004	6	..........a	-327.68
	64	2.6	-1.96331E-001	-2.47391E-001	-2.21861E-001	6.40996E-008	-5.75392E-008	1.21639E-007	-2.47000E-001	4.09789E-004	6	..........a	-327.68
	65	2.64	-1.94348E-001	-2.45379E-001	-2.19863E-001	6.47205E-008	-5.64824E-008	1.21203E-007	-2.45000E-001	4.15623E-004	6	..........a	-327.68
	66	2.68	-1.92340E-001	-2.43353E-001	-2.17847E-001	6.33611E-008	-5.63941E-008	1.19755E-007	-2.43000E-001	4.08956E-004	6	..........a	-327.68
	67	2.72	-1.90218E-001	-2.41288E-001	-2.15753E-001	6.25827E-008	-5.43838E-008	1.16967E-007	-2.41000E-001	4.17706E-004	6	..........a	-327.68
	68	2.76	-1.88322E-001	-2.39400E-001	-2.13861E-001	6.29594E-008	-5.46864E-008	1.17646E-007	-2.39000E-001	4.12289E-004	6	..........a	-327.68
	69	2.8	-1.86372E-001	-2.37410E-001	-2.11891E-001	6.14642E-008	-5.43847E-008	1.15849E-007	-2.37000E-001	4.13123E-004	6	..........a	-327.68
	70	2.84	-1.84326E-001	-2.35356E-001	-2.09841E-001	6.22402E-008	-5.30045E-008	1.15245E-007	-2.35000E-001	4.18956E-004	6	..........a	-327.68
	71	2.88	-1.82278E-001	-2.33315E-001	-2.07796E-001	6.13717E-008	-5.30412E-008	1.14413E-007	-2.33000E-001	3.90206E-004	6	..........a	-327.68
	72	2.92	-1.80297E-001	-2.31386E-001	-2.05841E-001	6.06183E-008	-5.18302E-008	1.12448E-007	-2.31000E-001	4.12289E-004	6	..........a	-327.68
	73	2.96	-1.78372E-001	-2.29390E-001	-2.03881E-001	6.07283E-008	-5.20869E-008	1.12815E-007	-2.29000E-001	4.06873E-004	6	..........a	-327.68
	74	3	-1.76341E-001	-2.27358E-001	-2.01850E-001	5.97032E-008	-5.14026E-008	1.11106E-007	-2.27000E-001	4.06873E-004	6	..........a	-327.68
	75	3.04	-1.74286E-001	-2.25327E-001	-1.99807E-001	6.04391E-008	-5.04983E-008	1.10937E-007	-2.25000E-001	4.19373E-004	6	..........a	-327.68
	76	3.08	-1.72327E-001	-2.23373E-001	-1.97850E-001	5.93540E-008	-5.01125E-008	1.09466E-007	-2.23000E-001	4.20623E-004	6	..........a	-327.68
	77	3.12	-1.70345E-001	-2.21373E-001	-1.95859E-001	5.88172E-008	-4.87240E-008	1.07541E-007	-2.21000E-001	4.09373E-004	6	..........a	-327.68
	78	3.16	-1.68331E-001	-2.19368E-001	-1.93850E-001	5.95665E-008	-4.90507E-008	1.08617E-007	-2.19000E-001	4.05206E-004	6	..........a	-327.68
	79	3.2	-1.66250E-001	-2.17343E-001	-1.91797E-001	5.84980E-008	-4.86214E-008	1.07119E-007	-2.17000E-001	4.31456E-004	6	..........a	-327.68
	80	3.24	-1.64313E-001	-2.15381E-001	-1.89847E-001	5.94206E-008	-4.74088E-008	1.06829E-007	-2.15000E-001	4.33539E-004	6	..........a	-327.68
	81	3.28	-1.62353E-001	-2.13407E-001	-1.87880E-001	5.81730E-008	-4.77630E-008	1.05936E-007	-2.13000E-001	4.29373E-004	6	..........a	-327.68
	82	3.32	-1.60343E-001	-2.11358E-001	-1.85850E-001	5.79821E-008	-4.58353E-008	1.03817E-007	-2.11000E-001	4.10623E-004	6	..........a	-327.68
	83	3.36	-1.58253E-001	-2.09309E-001	-1.83781E-001	5.86789E-008	-4.62270E-008	1.04906E-007	-2.09000E-001	4.14373E-004	6	..........a	-327.68
	84	3.4	-1.56319E-001	-2.07375E-001	-1.81847E-001	5.77238E-008	-4.54277E-008	1.03151E-007	-2.07000E-001	4.09789E-004	6	..........a	-327.68
	85	3.44	-1.54330E-001	-2.05381E-001	-1.79855E-001	5.92756E-008	-4.45926E-008	1.03868E-007	-2.05000E-001	4.36873E-004	6	..........a	-327.68
	86	3.48	-1.52359E-001	-2.03356E-001	-1.77858E-001	5.84347E-008	-4.50310E-008	1.03466E-007	-2.03000E-001	3.98956E-004	6	..........a	-327.68
	87	3.52	-1.50293E-001	-2.01332E-001	-1.75813E-001	5.79004E-008	-4.37058E-008	1.01606E-007	-2.01000E-001	4.18956E-004	6	..........a	-327.68
	88	3.56	-1.48322E-001	-1.99401E-001	-1.73862E-001	5.89489E-008	-4.38842E-008	1.02833E-007	-1.99000E-001	4.14789E-004	6	..........a	-327.68
	89	3.6	-1.46334E-001	-1.97393E-001	-1.71864E-001	5.76512E-008	-4.37066E-008	1.01358E-007	-1.97000E-001	4.16456E-004	6	..........a	-327.68
	90	3.64	-1.44336E-001	-1.95377E-001	-1.69857E-001	5.87889E-008	-4.28974E-008	1.01686E-007	-1.95000E-001	4.30206E-004	6	..........a	-327.68
	91	3.68	-1.42313E-001	-1.93366E-001	-1.67840E-001	5.76888E-008	-4.31257E-008	1.00814E-007	-1.93000E-001	4.18539E-004	6	..........a	-327.68
	92	3.72	-1.40328E-001	-1.91397E-001	-1.65863E-001	5.79113E-008	-4.18247E-008	9.97360E-008	-1.91000E-001	4.37706E-004	6	..........a	-327.68
	93	3.76	-1.38356E-001	-1.89386E-001	-1.63871E-001	5.84272E-008	-4.18989E-008	1.00326E-007	-1.89000E-001	4.23539E-004	6	..........a	-327.68
	94	3.8	-1.36341E-001	-1.87365E-001	-1.61853E-001	5.77388E-008	-4.16806E-008	9.94193E-008	-1.87000E-001	4.02706E-004	6	..........a	-327.68
	95	3.84	-1.34284E-001	-1.85363E-001	-1.59824E-001	5.86947E-008	-4.11430E-008	9.98377E-008	-1.85000E-001	4.14789E-004	6	..........a	-327.68
	96	3.88	-1.32306E-001	-1.83379E-001	-1.57842E-001	5.82272E-008	-4.13964E-008	9.96235E-008	-1.83000E-001	4.21039E-004	6	..........a	-327.68
	97	3.92	-1.30344E-001	-1.81362E-001	-1.55853E-001	5.82847E-008	-4.01720E-008	9.84567E-008	-1.81000E-001	4.18539E-004	6	..........a	-327.68
	98	3.96	-1.28309E-001	-1.79344E-001	-1.53827E-001	5.86880E-008	-4.05129E-008	9.92009E-008	-1.79000E-001	4.18539E-004	6	..........a	-327.68
	99	4	-1.26262E-001	-1.77312E-001	-1.51787E-001	5.83597E-008	-4.08371E-008	9.91968E-008	-1.77000E-001	4.12706E-004	6	..........a	-327.68
	100	4.04	-1.24313E-001	-1.75378E-001	-1.49845E-001	5.95332E-008	-3.98428E-008	9.93760E-008	-1.75000E-001	4.33539E-004	6	..........a	-327.68
