EXPLAIN
TAG	SQUARE_WAVE
TITLE	LABEL	Square Wave Voltammetry	Test Identifier
DATE	LABEL	8/10/2020	Date
TIME	LABEL	20:46:19	Time
NOTES	NOTES	1	Notes...
	
PSTAT	PSTAT	REF600-24079	Potentiostat
VINIT	QUANT	-3.50000E-001	Initial E (V)
VFINAL	QUANT	-1.50000E-001	Final E (V)
STEPSIZE	QUANT	2.00000E+000	Step Size (mV)
TIMERRES	QUANT	3.33340E-005	&Timer Resolution
FREQUENCY	QUANT	1.00000E+002	Frequency (Hz)
PULSESIZE	QUANT	2.50000E+001	Pulse Size E (mV)
PULSEON	QUANT	1.00000E-002	Pulse &Time (s)
NOISEREJECT	TOGGLE	F	Noise Rejection
AREA	QUANT	2.00000E-002	Sample Area (cm^2)
IMODE	SELECTOR	1	I/E Range Mode
IRANGE	QUANT	1.00000E-002	Max Current (mA)
EQDELAY	IQUANT	10	Equil. Time (s)
IRCOMP	SELECTOR	0	IRComp
PFCOR	QUANT	5.00000E+001	PF Corr. (ohm)
CYCLES	IQUANT	101	C&ycles (#)
ELECTRODETYPE	SELECTOR	0	Electrode Type
STRIPPING	TOGGLE	F	Used for Stripping
POLARITY	TOGGLE	F	Signal Polarity
LINEFREQ	IQUANT	60	Line Frequency (Hz)
INTPERIOD	QUANT	3.3334E-005	Integration Period (s)
SEQUENCER	TOGGLE	TRUE	Run as Sequence
PSTATMODEL	IQUANT	4	Pstat Model
PSTATSECTION	LABEL	REF600-24079	Pstat Section
PSTATSERIALNO	LABEL	24079	Pstat Serial Number
CTRLMODE	IQUANT	1	Control Mode
ELECTROMETER	IQUANT	0	RE=0 or CS=1
IESTAB	IQUANT	2	I/E Stability
CASPEED	IQUANT	6	Control Amp Speed
CONVENTION	IQUANT	1	Current Convention
ICHRANGE	IQUANT	2	Ich Range
ICHRANGEMODE	TOGGLE	F	Ich Auto Range
ICHOFFSETENABLE	TOGGLE	F	Ich Offset Enable
ICHOFFSET	QUANT	0	Ich Offset (V)
ICHFILTER	IQUANT	2	Ich Filter
VCHRANGE	IQUANT	2	Vch Range
VCHRANGEMODE	TOGGLE	F	Vch Auto Range
VCHOFFSETENABLE	TOGGLE	F	Vch Offset Enable
VCHOFFSET	QUANT	0	Vch Offset (V)
VCHFILTER	IQUANT	2	Vch Filter
ACHRANGE	IQUANT	2	Ach Range
ACHOFFSETENABLE	TOGGLE	F	Ach Offset Enable
ACHOFFSET	QUANT	0	Ach Offset (V)
ACHFILTER	IQUANT	1	Ach Filter
IERANGELOWERLIMIT	IQUANT	1	I/E Range Lower Limit
IERANGEMODE	TOGGLE	F	I/E AutoRange
IERANGE	IQUANT	7	I/E Range
POSFEEDENABLE	TOGGLE	F	Positive Feedback IR Comp
POSFEEDRESISTANCE	QUANT	0	Positive Feedback Resistance (ohm)
ACHSELECT	IQUANT	0	Ach Select
SENSECABLEID	IQUANT	13	Sense Cable ID
PWRCABLEID	IQUANT	13	Power Cable ID
DCCALDATE	LABEL	6/30/2020	DC Calibration Date
ACCALDATE	LABEL	6/30/2020	AC Calibration Date
THERMOSELECT	IQUANT	1	Thermo Select
FRAMEWORKVERSION	LABEL	7.8.2	Framework Version
INSTRUMENTVERSION	LABEL	4.40	Instrument Version
CURVE	TABLE	101
	Pt	T	Vfwd	Vrev	Vstep	Ifwd	Irev	Idif	Sig	Ach	IERange	Over	Temp
	#	s	V	V	V	A	A	A	V	V	#	bits	deg C
	0	0.01	-3.24931E-001	-3.74458E-001	-3.49694E-001	-8.97168E-008	9.75420E-008	-1.87259E-007	-3.75000E-001	3.79373E-004	7	..........a	-327.68
	1	0.02	-3.23376E-001	-3.72463E-001	-3.47919E-001	-4.25829E-007	1.36814E-007	-5.62643E-007	-3.73000E-001	3.47706E-004	7	..........a	-327.68
	2	0.03	-3.21339E-001	-3.70466E-001	-3.45903E-001	-4.03893E-007	1.47716E-007	-5.51609E-007	-3.71000E-001	3.17706E-004	7	..........a	-327.68
	3	0.04	-3.19429E-001	-3.68509E-001	-3.43969E-001	-3.92158E-007	1.57650E-007	-5.49808E-007	-3.69000E-001	3.41039E-004	7	..........a	-327.68
	4	0.05	-3.17431E-001	-3.66463E-001	-3.41947E-001	-3.86624E-007	1.62017E-007	-5.48641E-007	-3.67000E-001	3.42706E-004	7	..........a	-327.68
	5	0.06	-3.15409E-001	-3.64479E-001	-3.39944E-001	-3.77656E-007	1.69118E-007	-5.46775E-007	-3.65000E-001	3.62706E-004	7	..........a	-327.68
	6	0.07	-3.13306E-001	-3.62486E-001	-3.37896E-001	-3.74189E-007	1.74853E-007	-5.49041E-007	-3.63000E-001	3.51039E-004	7	..........a	-327.68
	7	0.08	-3.11431E-001	-3.60491E-001	-3.35961E-001	-3.69222E-007	1.78186E-007	-5.47408E-007	-3.61000E-001	3.46039E-004	7	..........a	-327.68
	8	0.09	-3.09384E-001	-3.58429E-001	-3.33907E-001	-3.66421E-007	1.81087E-007	-5.47508E-007	-3.59000E-001	3.59373E-004	7	..........a	-327.68
	9	0.1	-3.07379E-001	-3.56464E-001	-3.31922E-001	-3.62987E-007	1.83787E-007	-5.46775E-007	-3.57000E-001	3.42706E-004	7	..........a	-327.68
	10	0.11	-3.05321E-001	-3.54499E-001	-3.29910E-001	-3.57687E-007	1.86021E-007	-5.43707E-007	-3.55000E-001	3.42706E-004	7	..........a	-327.68
	11	0.12	-3.03423E-001	-3.52493E-001	-3.27958E-001	-3.54120E-007	1.87321E-007	-5.41440E-007	-3.53000E-001	3.02706E-004	7	..........a	-327.68
	12	0.13	-3.01408E-001	-3.50453E-001	-3.25930E-001	-3.51453E-007	1.92388E-007	-5.43841E-007	-3.51000E-001	3.42706E-004	7	..........a	-327.68
	13	0.14	-2.99386E-001	-3.48474E-001	-3.23930E-001	-3.50486E-007	1.96022E-007	-5.46508E-007	-3.49000E-001	3.36039E-004	7	..........a	-327.68
	14	0.15	-2.97359E-001	-3.46474E-001	-3.21917E-001	-3.45318E-007	1.98922E-007	-5.44241E-007	-3.47000E-001	3.46039E-004	7	..........a	-327.68
	15	0.16	-2.95368E-001	-3.44541E-001	-3.19954E-001	-3.43885E-007	2.01656E-007	-5.45541E-007	-3.45000E-001	3.42706E-004	7	..........a	-327.68
	16	0.17	-2.93429E-001	-3.42413E-001	-3.17921E-001	-3.41384E-007	2.04490E-007	-5.45874E-007	-3.43000E-001	3.31039E-004	7	..........a	-327.68
	17	0.18	-2.91379E-001	-3.40484E-001	-3.15932E-001	-3.38017E-007	2.07024E-007	-5.45041E-007	-3.41000E-001	3.31039E-004	7	..........a	-327.68
	18	0.19	-2.89324E-001	-3.38494E-001	-3.13909E-001	-3.35350E-007	2.08957E-007	-5.44308E-007	-3.39000E-001	3.41039E-004	7	..........a	-327.68
	19	0.2	-2.87411E-001	-3.36474E-001	-3.11943E-001	-3.32850E-007	2.09191E-007	-5.42041E-007	-3.37000E-001	3.11039E-004	7	..........a	-327.68
	20	0.21	-2.85414E-001	-3.34428E-001	-3.09921E-001	-3.28549E-007	2.09624E-007	-5.38173E-007	-3.35000E-001	3.42706E-004	7	..........a	-327.68
	21	0.22	-2.83368E-001	-3.32443E-001	-3.07905E-001	-3.26216E-007	2.11458E-007	-5.37673E-007	-3.33000E-001	3.64373E-004	7	..........a	-327.68
	22	0.23	-2.81326E-001	-3.30486E-001	-3.05906E-001	-3.22882E-007	2.13391E-007	-5.36273E-007	-3.31000E-001	3.24373E-004	7	..........a	-327.68
	23	0.24	-2.79409E-001	-3.28498E-001	-3.03953E-001	-3.22549E-007	2.16925E-007	-5.39473E-007	-3.29000E-001	3.41039E-004	7	..........a	-327.68
	24	0.25	-2.77391E-001	-3.26448E-001	-3.01919E-001	-3.20548E-007	2.17958E-007	-5.38507E-007	-3.27000E-001	3.14373E-004	7	..........a	-327.68
	25	0.26	-2.75398E-001	-3.24459E-001	-2.99928E-001	-3.18381E-007	2.20425E-007	-5.38807E-007	-3.25000E-001	3.47706E-004	7	..........a	-327.68
	26	0.27	-2.73318E-001	-3.22469E-001	-2.97893E-001	-3.17115E-007	2.23259E-007	-5.40374E-007	-3.23000E-001	3.89373E-004	7	..........a	-327.68
	27	0.28	-2.71389E-001	-3.20493E-001	-2.95941E-001	-3.15881E-007	2.23392E-007	-5.39274E-007	-3.21000E-001	3.34373E-004	7	..........a	-327.68
	28	0.29	-2.69361E-001	-3.18401E-001	-2.93881E-001	-3.11980E-007	2.24659E-007	-5.36640E-007	-3.19000E-001	3.21039E-004	7	..........a	-327.68
	29	0.3	-2.67361E-001	-3.16423E-001	-2.91892E-001	-3.10414E-007	2.24493E-007	-5.34906E-007	-3.17000E-001	3.34373E-004	7	..........a	-327.68
	30	0.31	-2.65308E-001	-3.14526E-001	-2.89917E-001	-3.06980E-007	2.26693E-007	-5.33673E-007	-3.15000E-001	3.74373E-004	7	..........a	-327.68
	31	0.32	-2.63396E-001	-3.12496E-001	-2.87946E-001	-3.05046E-007	2.28627E-007	-5.33673E-007	-3.13000E-001	3.61039E-004	7	..........a	-327.68
	32	0.33	-2.61383E-001	-3.10414E-001	-2.85898E-001	-3.01812E-007	2.29427E-007	-5.31239E-007	-3.11000E-001	3.37706E-004	7	..........a	-327.68
	33	0.34	-2.59358E-001	-3.08431E-001	-2.83894E-001	-2.98612E-007	2.31060E-007	-5.29672E-007	-3.09000E-001	3.51039E-004	7	..........a	-327.68
	34	0.35	-2.57318E-001	-3.06493E-001	-2.81905E-001	-2.96878E-007	2.33527E-007	-5.30406E-007	-3.07000E-001	3.39373E-004	7	..........a	-327.68
	35	0.36	-2.55403E-001	-3.04523E-001	-2.79963E-001	-2.94145E-007	2.31927E-007	-5.26072E-007	-3.05000E-001	3.14373E-004	7	..........a	-327.68
	36	0.37	-2.53383E-001	-3.02466E-001	-2.77924E-001	-2.92011E-007	2.33761E-007	-5.25772E-007	-3.03000E-001	3.44373E-004	7	..........a	-327.68
	37	0.38	-2.51383E-001	-3.00429E-001	-2.75906E-001	-2.91044E-007	2.33461E-007	-5.24505E-007	-3.01000E-001	3.39373E-004	7	..........a	-327.68
	38	0.39	-2.49321E-001	-2.98506E-001	-2.73913E-001	-2.87377E-007	2.35361E-007	-5.22738E-007	-2.99000E-001	3.14373E-004	7	..........a	-327.68
	39	0.4	-2.47354E-001	-2.96499E-001	-2.71927E-001	-2.85277E-007	2.35861E-007	-5.21138E-007	-2.97000E-001	3.36039E-004	7	..........a	-327.68
	40	0.41	-2.45369E-001	-2.94486E-001	-2.69928E-001	-2.83710E-007	2.38261E-007	-5.21971E-007	-2.95000E-001	3.52706E-004	7	..........a	-327.68
	41	0.42	-2.43354E-001	-2.92453E-001	-2.67903E-001	-2.82043E-007	2.40762E-007	-5.22805E-007	-2.93000E-001	3.16039E-004	7	..........a	-327.68
	42	0.43	-2.41308E-001	-2.90501E-001	-2.65904E-001	-2.80876E-007	2.39461E-007	-5.20338E-007	-2.91000E-001	3.01039E-004	7	..........a	-327.68
	43	0.44	-2.39393E-001	-2.88501E-001	-2.63947E-001	-2.78609E-007	2.40995E-007	-5.19604E-007	-2.89000E-001	3.26039E-004	7	..........a	-327.68
	44	0.45	-2.37403E-001	-2.86426E-001	-2.61914E-001	-2.75509E-007	2.38295E-007	-5.13803E-007	-2.87000E-001	3.36039E-004	7	..........a	-327.68
	45	0.46	-2.35329E-001	-2.84436E-001	-2.59883E-001	-2.74409E-007	2.38195E-007	-5.12603E-007	-2.85000E-001	3.37706E-004	7	..........a	-327.68
	46	0.47	-2.33281E-001	-2.82508E-001	-2.57894E-001	-2.71475E-007	2.40061E-007	-5.11536E-007	-2.83000E-001	3.11039E-004	7	..........a	-327.68
	47	0.48	-2.31376E-001	-2.80509E-001	-2.55943E-001	-2.67874E-007	2.38861E-007	-5.06736E-007	-2.81000E-001	3.37706E-004	7	..........a	-327.68
	48	0.49	-2.29394E-001	-2.78434E-001	-2.53914E-001	-2.66641E-007	2.40828E-007	-5.07469E-007	-2.79000E-001	3.26039E-004	7	..........a	-327.68
	49	0.5	-2.27346E-001	-2.76451E-001	-2.51898E-001	-2.66241E-007	2.41895E-007	-5.08136E-007	-2.77000E-001	3.11039E-004	7	..........a	-327.68
	50	0.51	-2.25326E-001	-2.74509E-001	-2.49918E-001	-2.65374E-007	2.43295E-007	-5.08669E-007	-2.75000E-001	3.56039E-004	7	..........a	-327.68
	51	0.52	-2.23363E-001	-2.72489E-001	-2.47926E-001	-2.62874E-007	2.46262E-007	-5.09136E-007	-2.73000E-001	3.31039E-004	7	..........a	-327.68
	52	0.53	-2.21363E-001	-2.70451E-001	-2.45907E-001	-2.62140E-007	2.45496E-007	-5.07636E-007	-2.71000E-001	3.72706E-004	7	..........a	-327.68
	53	0.54	-2.19351E-001	-2.68424E-001	-2.43888E-001	-2.63374E-007	2.45729E-007	-5.09103E-007	-2.69000E-001	3.24373E-004	7	..........a	-327.68
	54	0.55	-2.17334E-001	-2.66504E-001	-2.41919E-001	-2.61040E-007	2.45896E-007	-5.06936E-007	-2.67000E-001	3.31039E-004	7	..........a	-327.68
	55	0.56	-2.15409E-001	-2.64524E-001	-2.39967E-001	-2.56740E-007	2.45529E-007	-5.02268E-007	-2.65000E-001	3.32706E-004	7	..........a	-327.68
	56	0.57	-2.13398E-001	-2.62443E-001	-2.37920E-001	-2.56073E-007	2.47362E-007	-5.03435E-007	-2.63000E-001	3.26039E-004	7	..........a	-327.68
	57	0.58	-2.11356E-001	-2.60443E-001	-2.35899E-001	-2.56206E-007	2.48529E-007	-5.04735E-007	-2.61000E-001	3.27706E-004	7	..........a	-327.68
	58	0.59	-2.09301E-001	-2.58473E-001	-2.33887E-001	-2.56140E-007	2.50963E-007	-5.07102E-007	-2.59000E-001	3.36039E-004	7	..........a	-327.68
	59	0.6	-2.07333E-001	-2.56464E-001	-2.31898E-001	-2.53773E-007	2.49163E-007	-5.02935E-007	-2.57000E-001	3.42706E-004	7	..........a	-327.68
	60	0.61	-2.05363E-001	-2.54406E-001	-2.29884E-001	-2.51872E-007	2.48263E-007	-5.00135E-007	-2.55000E-001	3.17706E-004	7	..........a	-327.68
	61	0.62	-2.03306E-001	-2.52438E-001	-2.27872E-001	-2.51639E-007	2.52663E-007	-5.04302E-007	-2.53000E-001	3.57706E-004	7	..........a	-327.68
	62	0.63	-2.01319E-001	-2.50498E-001	-2.25908E-001	-2.51039E-007	2.54363E-007	-5.05402E-007	-2.51000E-001	3.31039E-004	7	..........a	-327.68
	63	0.64	-1.99373E-001	-2.48499E-001	-2.23936E-001	-2.51539E-007	2.53130E-007	-5.04669E-007	-2.49000E-001	3.36039E-004	7	..........a	-327.68
	64	0.65	-1.97356E-001	-2.46481E-001	-2.21918E-001	-2.49305E-007	2.53597E-007	-5.02902E-007	-2.47000E-001	3.46039E-004	7	..........a	-327.68
	65	0.66	-1.95391E-001	-2.44489E-001	-2.19940E-001	-2.49439E-007	2.54963E-007	-5.04402E-007	-2.45000E-001	3.82706E-004	7	..........a	-327.68
	66	0.67	-1.93339E-001	-2.42451E-001	-2.17895E-001	-2.49905E-007	2.59097E-007	-5.09003E-007	-2.43000E-001	3.26039E-004	7	..........a	-327.68
	67	0.68	-1.91391E-001	-2.40503E-001	-2.15947E-001	-2.48005E-007	2.57364E-007	-5.05369E-007	-2.41000E-001	3.44373E-004	7	..........a	-327.68
	68	0.69	-1.89369E-001	-2.38469E-001	-2.13919E-001	-2.49039E-007	2.59564E-007	-5.08603E-007	-2.39000E-001	3.27706E-004	7	..........a	-327.68
	69	0.7	-1.87373E-001	-2.36444E-001	-2.11908E-001	-2.46438E-007	2.60898E-007	-5.07336E-007	-2.37000E-001	3.42706E-004	7	..........a	-327.68
	70	0.71	-1.85306E-001	-2.34466E-001	-2.09886E-001	-2.43438E-007	2.61298E-007	-5.04735E-007	-2.35000E-001	3.42706E-004	7	..........a	-327.68
	71	0.72	-1.83371E-001	-2.32466E-001	-2.07918E-001	-2.46638E-007	2.62765E-007	-5.09403E-007	-2.33000E-001	3.07706E-004	7	..........a	-327.68
	72	0.73	-1.81348E-001	-2.30424E-001	-2.05886E-001	-2.42471E-007	2.60064E-007	-5.02535E-007	-2.31000E-001	3.77706E-004	7	..........a	-327.68
	73	0.74	-1.79338E-001	-2.28424E-001	-2.03881E-001	-2.43938E-007	2.64398E-007	-5.08336E-007	-2.29000E-001	3.44373E-004	7	..........a	-327.68
	74	0.75	-1.77291E-001	-2.26451E-001	-2.01871E-001	-2.43471E-007	2.66198E-007	-5.09669E-007	-2.27000E-001	3.22706E-004	7	..........a	-327.68
	75	0.76	-1.75376E-001	-2.24476E-001	-1.99926E-001	-2.43671E-007	2.67065E-007	-5.10736E-007	-2.25000E-001	3.31039E-004	7	..........a	-327.68
	76	0.77	-1.73391E-001	-2.22418E-001	-1.97904E-001	-2.44471E-007	2.71466E-007	-5.15937E-007	-2.23000E-001	3.39373E-004	7	..........a	-327.68
	77	0.78	-1.71374E-001	-2.20446E-001	-1.95910E-001	-2.43204E-007	2.68899E-007	-5.12103E-007	-2.21000E-001	3.21039E-004	7	..........a	-327.68
	78	0.79	-1.69309E-001	-2.18481E-001	-1.93895E-001	-2.42438E-007	2.72899E-007	-5.15337E-007	-2.19000E-001	3.41039E-004	7	..........a	-327.68
	79	0.8	-1.67351E-001	-2.16508E-001	-1.91929E-001	-2.40904E-007	2.71066E-007	-5.11970E-007	-2.17000E-001	3.56039E-004	7	..........a	-327.68
	80	0.81	-1.65383E-001	-2.14376E-001	-1.89879E-001	-2.38104E-007	2.72899E-007	-5.11003E-007	-2.15000E-001	3.61039E-004	7	..........a	-327.68
	81	0.82	-1.63343E-001	-2.12464E-001	-1.87903E-001	-2.40571E-007	2.73466E-007	-5.14037E-007	-2.13000E-001	3.06039E-004	7	..........a	-327.68
	82	0.83	-1.61321E-001	-2.10516E-001	-1.85918E-001	-2.37570E-007	2.71866E-007	-5.09436E-007	-2.11000E-001	3.39373E-004	7	..........a	-327.68
	83	0.84	-1.59384E-001	-2.08496E-001	-1.83940E-001	-2.39771E-007	2.74333E-007	-5.14103E-007	-2.09000E-001	3.49373E-004	7	..........a	-327.68
	84	0.85	-1.57369E-001	-2.06393E-001	-1.81881E-001	-2.37104E-007	2.76300E-007	-5.13403E-007	-2.07000E-001	3.24373E-004	7	..........a	-327.68
	85	0.86	-1.55351E-001	-2.04433E-001	-1.79892E-001	-2.36003E-007	2.78033E-007	-5.14037E-007	-2.05000E-001	3.16039E-004	7	..........a	-327.68
	86	0.87	-1.53303E-001	-2.02493E-001	-1.77898E-001	-2.37370E-007	2.77933E-007	-5.15304E-007	-2.03000E-001	3.22706E-004	7	..........a	-327.68
	87	0.88	-1.51381E-001	-2.00484E-001	-1.75933E-001	-2.36604E-007	2.78467E-007	-5.15070E-007	-2.01000E-001	3.26039E-004	7	..........a	-327.68
	88	0.89	-1.49426E-001	-1.98476E-001	-1.73951E-001	-2.35137E-007	2.79167E-007	-5.14303E-007	-1.99000E-001	3.19373E-004	7	..........a	-327.68
	89	0.9	-1.47386E-001	-1.96446E-001	-1.71916E-001	-2.35370E-007	2.78833E-007	-5.14203E-007	-1.97000E-001	3.24373E-004	7	..........a	-327.68
	90	0.91	-1.45319E-001	-1.94481E-001	-1.69900E-001	-2.33570E-007	2.80467E-007	-5.14037E-007	-1.95000E-001	3.39373E-004	7	..........a	-327.68
	91	0.92	-1.43379E-001	-1.92499E-001	-1.67939E-001	-2.35903E-007	2.82100E-007	-5.18004E-007	-1.93000E-001	3.47706E-004	7	..........a	-327.68
	92	0.93	-1.41359E-001	-1.90376E-001	-1.65868E-001	-2.35003E-007	2.82200E-007	-5.17204E-007	-1.91000E-001	3.47706E-004	7	..........a	-327.68
	93	0.94	-1.39319E-001	-1.88396E-001	-1.63858E-001	-2.34403E-007	2.83367E-007	-5.17771E-007	-1.89000E-001	3.36039E-004	7	..........a	-327.68
	94	0.95	-1.37286E-001	-1.86491E-001	-1.61888E-001	-2.33736E-007	2.84934E-007	-5.18671E-007	-1.87000E-001	3.54373E-004	7	..........a	-327.68
	95	0.96	-1.35398E-001	-1.84471E-001	-1.59934E-001	-2.33770E-007	2.84067E-007	-5.17837E-007	-1.85000E-001	3.41039E-004	7	..........a	-327.68
	96	0.97	-1.33403E-001	-1.82403E-001	-1.57903E-001	-2.31670E-007	2.84501E-007	-5.16170E-007	-1.83000E-001	3.19373E-004	7	..........a	-327.68
	97	0.98	-1.31349E-001	-1.80403E-001	-1.55876E-001	-2.28736E-007	2.84334E-007	-5.13070E-007	-1.81000E-001	3.47706E-004	7	..........a	-327.68
	98	0.99	-1.29283E-001	-1.78474E-001	-1.53878E-001	-2.29369E-007	2.86134E-007	-5.15504E-007	-1.79000E-001	3.32706E-004	7	..........a	-327.68
	99	1	-1.27386E-001	-1.76463E-001	-1.51924E-001	-2.32403E-007	2.86401E-007	-5.18804E-007	-1.77000E-001	3.29373E-004	7	..........a	-327.68
	100	1.01	-1.25383E-001	-1.74393E-001	-1.49888E-001	-2.29869E-007	2.86301E-007	-5.16170E-007	-1.75000E-001	3.42706E-004	7	..........a	-327.68
