EXPLAIN
TAG	SQUARE_WAVE
TITLE	LABEL	Square Wave Voltammetry	Test Identifier
DATE	LABEL	8/10/2020	Date
TIME	LABEL	20:47:02	Time
NOTES	NOTES	1	Notes...
	
PSTAT	PSTAT	REF600-24079	Potentiostat
VINIT	QUANT	-3.50000E-001	Initial E (V)
VFINAL	QUANT	-1.50000E-001	Final E (V)
STEPSIZE	QUANT	2.00000E+000	Step Size (mV)
TIMERRES	QUANT	3.33340E-005	&Timer Resolution
FREQUENCY	QUANT	5.00000E+002	Frequency (Hz)
PULSESIZE	QUANT	2.50000E+001	Pulse Size E (mV)
PULSEON	QUANT	2.00000E-003	Pulse &Time (s)
NOISEREJECT	TOGGLE	F	Noise Rejection
AREA	QUANT	2.00000E-002	Sample Area (cm^2)
IMODE	SELECTOR	1	I/E Range Mode
IRANGE	QUANT	1.00000E-002	Max Current (mA)
EQDELAY	IQUANT	10	Equil. Time (s)
IRCOMP	SELECTOR	0	IRComp
PFCOR	QUANT	5.00000E+001	PF Corr. (ohm)
CYCLES	IQUANT	101	C&ycles (#)
ELECTRODETYPE	SELECTOR	0	Electrode Type
STRIPPING	TOGGLE	F	Used for Stripping
POLARITY	TOGGLE	F	Signal Polarity
LINEFREQ	IQUANT	60	Line Frequency (Hz)
INTPERIOD	QUANT	3.3334E-005	Integration Period (s)
SEQUENCER	TOGGLE	TRUE	Run as Sequence
PSTATMODEL	IQUANT	4	Pstat Model
PSTATSECTION	LABEL	REF600-24079	Pstat Section
PSTATSERIALNO	LABEL	24079	Pstat Serial Number
CTRLMODE	IQUANT	1	Control Mode
ELECTROMETER	IQUANT	0	RE=0 or CS=1
IESTAB	IQUANT	2	I/E Stability
CASPEED	IQUANT	6	Control Amp Speed
CONVENTION	IQUANT	1	Current Convention
ICHRANGE	IQUANT	2	Ich Range
ICHRANGEMODE	TOGGLE	F	Ich Auto Range
ICHOFFSETENABLE	TOGGLE	F	Ich Offset Enable
ICHOFFSET	QUANT	0	Ich Offset (V)
ICHFILTER	IQUANT	1	Ich Filter
VCHRANGE	IQUANT	2	Vch Range
VCHRANGEMODE	TOGGLE	F	Vch Auto Range
VCHOFFSETENABLE	TOGGLE	F	Vch Offset Enable
VCHOFFSET	QUANT	0	Vch Offset (V)
VCHFILTER	IQUANT	1	Vch Filter
ACHRANGE	IQUANT	2	Ach Range
ACHOFFSETENABLE	TOGGLE	F	Ach Offset Enable
ACHOFFSET	QUANT	0	Ach Offset (V)
ACHFILTER	IQUANT	1	Ach Filter
IERANGELOWERLIMIT	IQUANT	1	I/E Range Lower Limit
IERANGEMODE	TOGGLE	F	I/E AutoRange
IERANGE	IQUANT	7	I/E Range
POSFEEDENABLE	TOGGLE	F	Positive Feedback IR Comp
POSFEEDRESISTANCE	QUANT	0	Positive Feedback Resistance (ohm)
ACHSELECT	IQUANT	0	Ach Select
SENSECABLEID	IQUANT	13	Sense Cable ID
PWRCABLEID	IQUANT	13	Power Cable ID
DCCALDATE	LABEL	6/30/2020	DC Calibration Date
ACCALDATE	LABEL	6/30/2020	AC Calibration Date
THERMOSELECT	IQUANT	1	Thermo Select
FRAMEWORKVERSION	LABEL	7.8.2	Framework Version
INSTRUMENTVERSION	LABEL	4.40	Instrument Version
CURVE	TABLE	101
	Pt	T	Vfwd	Vrev	Vstep	Ifwd	Irev	Idif	Sig	Ach	IERange	Over	Temp
	#	s	V	V	V	A	A	A	V	V	#	bits	deg C
	0	0.002	-3.25758E-001	-3.64274E-001	-3.45016E-001	-1.78825E-008	-1.20692E-005	1.20513E-005	-3.75000E-001	2.99373E-004	7	..........a	-327.68
	1	0.004	-3.41657E-001	-3.59233E-001	-3.50445E-001	8.43977E-006	-7.35088E-006	1.57907E-005	-3.73000E-001	1.99373E-004	7	..........a	-327.68
	2	0.006	-3.36208E-001	-3.56924E-001	-3.46566E-001	8.25541E-006	-8.08365E-006	1.63391E-005	-3.71000E-001	2.49373E-004	7	..........a	-327.68
	3	0.008	-3.34458E-001	-3.55174E-001	-3.44816E-001	8.16190E-006	-7.96663E-006	1.61285E-005	-3.69000E-001	3.41039E-004	7	..........a	-327.68
	4	0.01	-3.32633E-001	-3.53199E-001	-3.42916E-001	8.21874E-006	-7.95130E-006	1.61700E-005	-3.67000E-001	3.41039E-004	7	..........a	-327.68
	5	0.012	-3.30532E-001	-3.50941E-001	-3.40737E-001	8.23024E-006	-7.94096E-006	1.61712E-005	-3.65000E-001	2.82706E-004	7	..........a	-327.68
	6	0.014	-3.28582E-001	-3.49124E-001	-3.38853E-001	8.23941E-006	-7.93013E-006	1.61695E-005	-3.63000E-001	2.32706E-004	7	..........a	-327.68
	7	0.016	-3.26649E-001	-3.47241E-001	-3.36945E-001	8.24974E-006	-7.91413E-006	1.61639E-005	-3.61000E-001	2.32706E-004	7	..........a	-327.68
	8	0.018	-3.24491E-001	-3.45158E-001	-3.34824E-001	8.25958E-006	-7.90779E-006	1.61674E-005	-3.59000E-001	2.82706E-004	7	..........a	-327.68
	9	0.02	-3.22516E-001	-3.43174E-001	-3.32845E-001	8.26358E-006	-7.89929E-006	1.61629E-005	-3.57000E-001	2.57706E-004	7	..........a	-327.68
	10	0.022	-3.20391E-001	-3.41091E-001	-3.30741E-001	8.26875E-006	-7.89712E-006	1.61659E-005	-3.55000E-001	2.57706E-004	7	..........a	-327.68
	11	0.024	-3.18566E-001	-3.39224E-001	-3.28895E-001	8.27841E-006	-7.88762E-006	1.61660E-005	-3.53000E-001	3.16039E-004	7	..........a	-327.68
	12	0.026	-3.16508E-001	-3.37091E-001	-3.26799E-001	8.28392E-006	-7.87895E-006	1.61629E-005	-3.51000E-001	3.41039E-004	7	..........a	-327.68
	13	0.028	-3.14399E-001	-3.34983E-001	-3.24691E-001	8.28508E-006	-7.87279E-006	1.61579E-005	-3.49000E-001	2.99373E-004	7	..........a	-327.68
	14	0.03	-3.12308E-001	-3.33082E-001	-3.22695E-001	8.29658E-006	-7.86929E-006	1.61659E-005	-3.47000E-001	3.07706E-004	7	..........a	-327.68
	15	0.032	-3.10466E-001	-3.31257E-001	-3.20862E-001	8.29025E-006	-7.86879E-006	1.61590E-005	-3.45000E-001	2.82706E-004	7	..........a	-327.68
	16	0.034	-3.08566E-001	-3.29141E-001	-3.18853E-001	8.30158E-006	-7.85912E-006	1.61607E-005	-3.43000E-001	2.24373E-004	7	..........a	-327.68
	17	0.036	-3.06216E-001	-3.26833E-001	-3.16524E-001	8.29692E-006	-7.85562E-006	1.61525E-005	-3.41000E-001	2.74373E-004	7	..........a	-327.68
	18	0.038	-3.04291E-001	-3.25241E-001	-3.14766E-001	8.30642E-006	-7.85078E-006	1.61572E-005	-3.39000E-001	3.07706E-004	7	..........a	-327.68
	19	0.04	-3.02658E-001	-3.23041E-001	-3.12849E-001	8.30959E-006	-7.84362E-006	1.61532E-005	-3.37000E-001	2.66039E-004	7	..........a	-327.68
	20	0.042	-3.00608E-001	-3.21241E-001	-3.10924E-001	8.31359E-006	-7.84078E-006	1.61544E-005	-3.35000E-001	2.99373E-004	7	..........a	-327.68
	21	0.044	-2.98557E-001	-3.19108E-001	-3.08832E-001	8.31742E-006	-7.83878E-006	1.61562E-005	-3.33000E-001	2.74373E-004	7	..........a	-327.68
	22	0.046	-2.96457E-001	-3.17199E-001	-3.06828E-001	8.31659E-006	-7.83661E-006	1.61532E-005	-3.31000E-001	2.74373E-004	7	..........a	-327.68
	23	0.048	-2.94374E-001	-3.15257E-001	-3.04816E-001	8.32259E-006	-7.83078E-006	1.61534E-005	-3.29000E-001	2.49373E-004	7	..........a	-327.68
	24	0.05	-2.92591E-001	-3.13183E-001	-3.02887E-001	8.32209E-006	-7.82895E-006	1.61510E-005	-3.27000E-001	2.91039E-004	7	..........a	-327.68
	25	0.052	-2.90482E-001	-3.11174E-001	-3.00828E-001	8.32242E-006	-7.82328E-006	1.61457E-005	-3.25000E-001	2.99373E-004	7	..........a	-327.68
	26	0.054	-2.88624E-001	-3.09133E-001	-2.98878E-001	8.33026E-006	-7.81795E-006	1.61482E-005	-3.23000E-001	3.32706E-004	7	..........a	-327.68
	27	0.056	-2.86516E-001	-3.07074E-001	-2.96795E-001	8.33526E-006	-7.81661E-006	1.61519E-005	-3.21000E-001	2.66039E-004	7	..........a	-327.68
	28	0.058	-2.84533E-001	-3.05249E-001	-2.94891E-001	8.33359E-006	-7.81595E-006	1.61495E-005	-3.19000E-001	2.99373E-004	7	..........a	-327.68
	29	0.06	-2.82483E-001	-3.03108E-001	-2.92795E-001	8.33776E-006	-7.80911E-006	1.61469E-005	-3.17000E-001	3.41039E-004	7	..........a	-327.68
	30	0.062	-2.80524E-001	-3.00999E-001	-2.90762E-001	8.33909E-006	-7.80344E-006	1.61425E-005	-3.15000E-001	3.24373E-004	7	..........a	-327.68
	31	0.064	-2.78574E-001	-2.99107E-001	-2.88841E-001	8.33692E-006	-7.80411E-006	1.61410E-005	-3.13000E-001	2.32706E-004	7	..........a	-327.68
	32	0.066	-2.76591E-001	-2.97266E-001	-2.86928E-001	8.34359E-006	-7.80161E-006	1.61452E-005	-3.11000E-001	3.24373E-004	7	..........a	-327.68
	33	0.068	-2.74541E-001	-2.95266E-001	-2.84903E-001	8.34109E-006	-7.79444E-006	1.61355E-005	-3.09000E-001	2.16039E-004	7	..........a	-327.68
	34	0.07	-2.72574E-001	-2.93182E-001	-2.82878E-001	8.34342E-006	-7.79161E-006	1.61350E-005	-3.07000E-001	2.24373E-004	7	..........a	-327.68
	35	0.072	-2.70474E-001	-2.91207E-001	-2.80841E-001	8.35042E-006	-7.78828E-006	1.61387E-005	-3.05000E-001	2.74373E-004	7	..........a	-327.68
	36	0.074	-2.68374E-001	-2.89241E-001	-2.78808E-001	8.34959E-006	-7.78694E-006	1.61365E-005	-3.03000E-001	3.07706E-004	7	..........a	-327.68
	37	0.076	-2.66533E-001	-2.87166E-001	-2.76849E-001	8.34959E-006	-7.78294E-006	1.61325E-005	-3.01000E-001	3.07706E-004	7	..........a	-327.68
	38	0.078	-2.64541E-001	-2.85149E-001	-2.74845E-001	8.35659E-006	-7.77894E-006	1.61355E-005	-2.99000E-001	3.41039E-004	7	..........a	-327.68
	39	0.08	-2.62566E-001	-2.83008E-001	-2.72787E-001	8.35892E-006	-7.78061E-006	1.61395E-005	-2.97000E-001	2.57706E-004	7	..........a	-327.68
	40	0.082	-2.60541E-001	-2.81233E-001	-2.70887E-001	8.35842E-006	-7.77244E-006	1.61309E-005	-2.95000E-001	2.99373E-004	7	..........a	-327.68
	41	0.084	-2.58483E-001	-2.79216E-001	-2.68849E-001	8.36376E-006	-7.77011E-006	1.61339E-005	-2.93000E-001	2.74373E-004	7	..........a	-327.68
	42	0.086	-2.56557E-001	-2.77207E-001	-2.66882E-001	8.36326E-006	-7.76844E-006	1.61317E-005	-2.91000E-001	2.74373E-004	7	..........a	-327.68
	43	0.088	-2.54499E-001	-2.75124E-001	-2.64812E-001	8.36426E-006	-7.76361E-006	1.61279E-005	-2.89000E-001	2.74373E-004	7	..........a	-327.68
	44	0.09	-2.52533E-001	-2.73299E-001	-2.62916E-001	8.36893E-006	-7.75727E-006	1.61262E-005	-2.87000E-001	2.41039E-004	7	..........a	-327.68
	45	0.092	-2.50549E-001	-2.71233E-001	-2.60891E-001	8.37059E-006	-7.75677E-006	1.61274E-005	-2.85000E-001	3.07706E-004	7	..........a	-327.68
	46	0.094	-2.48508E-001	-2.69183E-001	-2.58845E-001	8.37376E-006	-7.75494E-006	1.61287E-005	-2.83000E-001	3.49373E-004	7	..........a	-327.68
	47	0.096	-2.46508E-001	-2.67266E-001	-2.56887E-001	8.36926E-006	-7.74960E-006	1.61189E-005	-2.81000E-001	3.07706E-004	7	..........a	-327.68
	48	0.098	-2.44516E-001	-2.65274E-001	-2.54895E-001	8.37509E-006	-7.74744E-006	1.61225E-005	-2.79000E-001	2.41039E-004	7	..........a	-327.68
	49	0.1	-2.42549E-001	-2.63283E-001	-2.52916E-001	8.37676E-006	-7.74860E-006	1.61254E-005	-2.77000E-001	3.16039E-004	7	..........a	-327.68
	50	0.102	-2.40474E-001	-2.61183E-001	-2.50828E-001	8.37293E-006	-7.74060E-006	1.61135E-005	-2.75000E-001	2.74373E-004	7	..........a	-327.68
	51	0.104	-2.38516E-001	-2.59257E-001	-2.48887E-001	8.37826E-006	-7.73643E-006	1.61147E-005	-2.73000E-001	2.16039E-004	7	..........a	-327.68
	52	0.106	-2.36558E-001	-2.57266E-001	-2.46912E-001	8.38060E-006	-7.73527E-006	1.61159E-005	-2.71000E-001	3.16039E-004	7	..........a	-327.68
	53	0.108	-2.34549E-001	-2.55258E-001	-2.44903E-001	8.37909E-006	-7.73360E-006	1.61127E-005	-2.69000E-001	2.91039E-004	7	..........a	-327.68
	54	0.11	-2.32441E-001	-2.53241E-001	-2.42841E-001	8.38210E-006	-7.73060E-006	1.61127E-005	-2.67000E-001	3.32706E-004	7	..........a	-327.68
	55	0.112	-2.30491E-001	-2.51041E-001	-2.40766E-001	8.38843E-006	-7.72777E-006	1.61162E-005	-2.65000E-001	2.91039E-004	7	..........a	-327.68
	56	0.114	-2.28524E-001	-2.49233E-001	-2.38878E-001	8.38110E-006	-7.72610E-006	1.61072E-005	-2.63000E-001	2.57706E-004	7	..........a	-327.68
	57	0.116	-2.26424E-001	-2.47191E-001	-2.36808E-001	8.39226E-006	-7.72360E-006	1.61159E-005	-2.61000E-001	3.07706E-004	7	..........a	-327.68
	58	0.118	-2.24508E-001	-2.45216E-001	-2.34862E-001	8.38510E-006	-7.72060E-006	1.61057E-005	-2.59000E-001	3.24373E-004	7	..........a	-327.68
	59	0.12	-2.22491E-001	-2.43249E-001	-2.32870E-001	8.38743E-006	-7.72110E-006	1.61085E-005	-2.57000E-001	2.82706E-004	7	..........a	-327.68
	60	0.122	-2.20483E-001	-2.41108E-001	-2.30795E-001	8.39393E-006	-7.71610E-006	1.61100E-005	-2.55000E-001	3.07706E-004	7	..........a	-327.68
	61	0.124	-2.18491E-001	-2.39308E-001	-2.28899E-001	8.39343E-006	-7.71510E-006	1.61085E-005	-2.53000E-001	2.82706E-004	7	..........a	-327.68
	62	0.126	-2.16524E-001	-2.37291E-001	-2.26908E-001	8.39793E-006	-7.71010E-006	1.61080E-005	-2.51000E-001	3.24373E-004	7	..........a	-327.68
	63	0.128	-2.14458E-001	-2.35266E-001	-2.24862E-001	8.39743E-006	-7.71143E-006	1.61089E-005	-2.49000E-001	3.91039E-004	7	..........a	-327.68
	64	0.13	-2.12366E-001	-2.33316E-001	-2.22841E-001	8.39360E-006	-7.71410E-006	1.61077E-005	-2.47000E-001	3.24373E-004	7	..........a	-327.68
	65	0.132	-2.10549E-001	-2.31233E-001	-2.20891E-001	8.39460E-006	-7.71026E-006	1.61049E-005	-2.45000E-001	2.91039E-004	7	..........a	-327.68
	66	0.134	-2.08458E-001	-2.29258E-001	-2.18858E-001	8.39693E-006	-7.70426E-006	1.61012E-005	-2.43000E-001	2.24373E-004	7	..........a	-327.68
	67	0.136	-2.06441E-001	-2.27266E-001	-2.16853E-001	8.39643E-006	-7.70960E-006	1.61060E-005	-2.41000E-001	3.16039E-004	7	..........a	-327.68
	68	0.138	-2.04424E-001	-2.25133E-001	-2.14778E-001	8.40210E-006	-7.70160E-006	1.61037E-005	-2.39000E-001	2.99373E-004	7	..........a	-327.68
	69	0.14	-2.02491E-001	-2.23324E-001	-2.12908E-001	8.40060E-006	-7.69926E-006	1.60999E-005	-2.37000E-001	2.66039E-004	7	..........a	-327.68
	70	0.142	-2.00491E-001	-2.21258E-001	-2.10874E-001	8.40277E-006	-7.70043E-006	1.61032E-005	-2.35000E-001	2.49373E-004	7	..........a	-327.68
	71	0.144	-1.98416E-001	-2.19258E-001	-2.08837E-001	8.40343E-006	-7.70426E-006	1.61077E-005	-2.33000E-001	2.99373E-004	7	..........a	-327.68
	72	0.146	-1.96483E-001	-2.17116E-001	-2.06799E-001	8.40193E-006	-7.70093E-006	1.61029E-005	-2.31000E-001	2.91039E-004	7	..........a	-327.68
	73	0.148	-1.94541E-001	-2.15191E-001	-2.04866E-001	8.40843E-006	-7.69643E-006	1.61049E-005	-2.29000E-001	2.82706E-004	7	..........a	-327.68
	74	0.15	-1.92433E-001	-2.13249E-001	-2.02841E-001	8.40393E-006	-7.69926E-006	1.61032E-005	-2.27000E-001	2.82706E-004	7	..........a	-327.68
	75	0.152	-1.90474E-001	-2.11324E-001	-2.00899E-001	8.40777E-006	-7.69576E-006	1.61035E-005	-2.25000E-001	2.82706E-004	7	..........a	-327.68
	76	0.154	-1.88483E-001	-2.09191E-001	-1.98837E-001	8.40377E-006	-7.69543E-006	1.60992E-005	-2.23000E-001	2.24373E-004	7	..........a	-327.68
	77	0.156	-1.86549E-001	-2.07274E-001	-1.96912E-001	8.40610E-006	-7.69310E-006	1.60992E-005	-2.21000E-001	3.24373E-004	7	..........a	-327.68
	78	0.158	-1.84466E-001	-2.05249E-001	-1.94858E-001	8.41210E-006	-7.69660E-006	1.61087E-005	-2.19000E-001	3.24373E-004	7	..........a	-327.68
	79	0.16	-1.82408E-001	-2.03224E-001	-1.92816E-001	8.40660E-006	-7.68993E-006	1.60965E-005	-2.17000E-001	3.24373E-004	7	..........a	-327.68
	80	0.162	-1.80441E-001	-2.01158E-001	-1.90799E-001	8.40977E-006	-7.69210E-006	1.61019E-005	-2.15000E-001	2.99373E-004	7	..........a	-327.68
	81	0.164	-1.78491E-001	-1.99324E-001	-1.88908E-001	8.41093E-006	-7.68826E-006	1.60992E-005	-2.13000E-001	2.66039E-004	7	..........a	-327.68
	82	0.166	-1.76408E-001	-1.97241E-001	-1.86824E-001	8.40810E-006	-7.69243E-006	1.61005E-005	-2.11000E-001	2.57706E-004	7	..........a	-327.68
	83	0.168	-1.74583E-001	-1.95308E-001	-1.84945E-001	8.40943E-006	-7.68776E-006	1.60972E-005	-2.09000E-001	2.66039E-004	7	..........a	-327.68
	84	0.17	-1.72433E-001	-1.93191E-001	-1.82812E-001	8.41310E-006	-7.68659E-006	1.60997E-005	-2.07000E-001	2.99373E-004	7	..........a	-327.68
	85	0.172	-1.70458E-001	-1.91366E-001	-1.80912E-001	8.41110E-006	-7.68843E-006	1.60995E-005	-2.05000E-001	2.24373E-004	7	..........a	-327.68
	86	0.174	-1.68333E-001	-1.89241E-001	-1.78787E-001	8.41943E-006	-7.68709E-006	1.61065E-005	-2.03000E-001	2.74373E-004	7	..........a	-327.68
	87	0.176	-1.66508E-001	-1.87324E-001	-1.76916E-001	8.41627E-006	-7.68143E-006	1.60977E-005	-2.01000E-001	3.07706E-004	7	..........a	-327.68
	88	0.178	-1.64391E-001	-1.85291E-001	-1.74841E-001	8.41860E-006	-7.68409E-006	1.61027E-005	-1.99000E-001	2.66039E-004	7	..........a	-327.68
	89	0.18	-1.62308E-001	-1.83283E-001	-1.72795E-001	8.41893E-006	-7.68243E-006	1.61014E-005	-1.97000E-001	2.99373E-004	7	..........a	-327.68
	90	0.182	-1.60499E-001	-1.81208E-001	-1.70853E-001	8.41427E-006	-7.68259E-006	1.60969E-005	-1.95000E-001	2.41039E-004	7	..........a	-327.68
	91	0.184	-1.58433E-001	-1.79241E-001	-1.68837E-001	8.41993E-006	-7.68493E-006	1.61049E-005	-1.93000E-001	3.32706E-004	7	..........a	-327.68
	92	0.186	-1.56383E-001	-1.77258E-001	-1.66820E-001	8.41993E-006	-7.68476E-006	1.61047E-005	-1.91000E-001	2.24373E-004	7	..........a	-327.68
	93	0.188	-1.54341E-001	-1.75274E-001	-1.64808E-001	8.42110E-006	-7.68026E-006	1.61014E-005	-1.89000E-001	2.99373E-004	7	..........a	-327.68
	94	0.19	-1.52466E-001	-1.73308E-001	-1.62887E-001	8.42243E-006	-7.67476E-006	1.60972E-005	-1.87000E-001	2.99373E-004	7	..........a	-327.68
	95	0.192	-1.50441E-001	-1.71324E-001	-1.60883E-001	8.42443E-006	-7.67759E-006	1.61020E-005	-1.85000E-001	3.16039E-004	7	..........a	-327.68
	96	0.194	-1.48491E-001	-1.69241E-001	-1.58866E-001	8.42510E-006	-7.68426E-006	1.61094E-005	-1.83000E-001	2.74373E-004	7	..........a	-327.68
	97	0.196	-1.46424E-001	-1.67108E-001	-1.56766E-001	8.42427E-006	-7.67476E-006	1.60990E-005	-1.81000E-001	2.91039E-004	7	..........a	-327.68
	98	0.198	-1.44491E-001	-1.65224E-001	-1.54858E-001	8.42577E-006	-7.67526E-006	1.61010E-005	-1.79000E-001	3.16039E-004	7	..........a	-327.68
	99	0.2	-1.42358E-001	-1.63208E-001	-1.52783E-001	8.42643E-006	-7.67659E-006	1.61030E-005	-1.77000E-001	2.24373E-004	7	..........a	-327.68
	100	0.202	-1.40408E-001	-1.61224E-001	-1.50816E-001	8.42777E-006	-7.67009E-006	1.60979E-005	-1.75000E-001	3.07706E-004	7	..........a	-327.68
