EXPLAIN
TAG	SQUARE_WAVE
TITLE	LABEL	Square Wave Voltammetry	Test Identifier
DATE	LABEL	8/10/2020	Date
TIME	LABEL	19:31:41	Time
NOTES	NOTES	1	Notes...
	
PSTAT	PSTAT	REF600-24079	Potentiostat
VINIT	QUANT	-3.50000E-001	Initial E (V)
VFINAL	QUANT	-1.50000E-001	Final E (V)
STEPSIZE	QUANT	2.00000E+000	Step Size (mV)
TIMERRES	QUANT	3.33340E-005	&Timer Resolution
FREQUENCY	QUANT	2.00000E+002	Frequency (Hz)
PULSESIZE	QUANT	2.50000E+001	Pulse Size E (mV)
PULSEON	QUANT	5.00000E-003	Pulse &Time (s)
NOISEREJECT	TOGGLE	F	Noise Rejection
AREA	QUANT	2.00000E-002	Sample Area (cm^2)
IMODE	SELECTOR	1	I/E Range Mode
IRANGE	QUANT	1.00000E-002	Max Current (mA)
EQDELAY	IQUANT	10	Equil. Time (s)
IRCOMP	SELECTOR	0	IRComp
PFCOR	QUANT	5.00000E+001	PF Corr. (ohm)
CYCLES	IQUANT	101	C&ycles (#)
ELECTRODETYPE	SELECTOR	0	Electrode Type
STRIPPING	TOGGLE	F	Used for Stripping
POLARITY	TOGGLE	F	Signal Polarity
LINEFREQ	IQUANT	60	Line Frequency (Hz)
INTPERIOD	QUANT	3.3334E-005	Integration Period (s)
SEQUENCER	TOGGLE	TRUE	Run as Sequence
PSTATMODEL	IQUANT	4	Pstat Model
PSTATSECTION	LABEL	REF600-24079	Pstat Section
PSTATSERIALNO	LABEL	24079	Pstat Serial Number
CTRLMODE	IQUANT	1	Control Mode
ELECTROMETER	IQUANT	0	RE=0 or CS=1
IESTAB	IQUANT	2	I/E Stability
CASPEED	IQUANT	6	Control Amp Speed
CONVENTION	IQUANT	1	Current Convention
ICHRANGE	IQUANT	2	Ich Range
ICHRANGEMODE	TOGGLE	F	Ich Auto Range
ICHOFFSETENABLE	TOGGLE	F	Ich Offset Enable
ICHOFFSET	QUANT	0	Ich Offset (V)
ICHFILTER	IQUANT	2	Ich Filter
VCHRANGE	IQUANT	2	Vch Range
VCHRANGEMODE	TOGGLE	F	Vch Auto Range
VCHOFFSETENABLE	TOGGLE	F	Vch Offset Enable
VCHOFFSET	QUANT	0	Vch Offset (V)
VCHFILTER	IQUANT	1	Vch Filter
ACHRANGE	IQUANT	2	Ach Range
ACHOFFSETENABLE	TOGGLE	F	Ach Offset Enable
ACHOFFSET	QUANT	0	Ach Offset (V)
ACHFILTER	IQUANT	1	Ach Filter
IERANGELOWERLIMIT	IQUANT	1	I/E Range Lower Limit
IERANGEMODE	TOGGLE	F	I/E AutoRange
IERANGE	IQUANT	7	I/E Range
POSFEEDENABLE	TOGGLE	F	Positive Feedback IR Comp
POSFEEDRESISTANCE	QUANT	0	Positive Feedback Resistance (ohm)
ACHSELECT	IQUANT	0	Ach Select
SENSECABLEID	IQUANT	13	Sense Cable ID
PWRCABLEID	IQUANT	13	Power Cable ID
DCCALDATE	LABEL	6/30/2020	DC Calibration Date
ACCALDATE	LABEL	6/30/2020	AC Calibration Date
THERMOSELECT	IQUANT	1	Thermo Select
FRAMEWORKVERSION	LABEL	7.8.2	Framework Version
INSTRUMENTVERSION	LABEL	4.40	Instrument Version
CURVE	TABLE	101
	Pt	T	Vfwd	Vrev	Vstep	Ifwd	Irev	Idif	Sig	Ach	IERange	Over	Temp
	#	s	V	V	V	A	A	A	V	V	#	bits	deg C
	0	0.005	-3.27157E-001	-3.83181E-001	-3.55169E-001	-6.61136E-008	-3.07726E-006	3.01114E-006	-3.75000E-001	3.46039E-004	7	..........a	-327.68
	1	0.01	-3.18424E-001	-3.81814E-001	-3.50119E-001	2.90429E-006	-3.22114E-006	6.12543E-006	-3.73000E-001	3.36039E-004	7	..........a	-327.68
	2	0.015	-3.16374E-001	-3.79821E-001	-3.48098E-001	2.94730E-006	-3.19401E-006	6.14130E-006	-3.71000E-001	3.39373E-004	7	..........a	-327.68
	3	0.02	-3.14374E-001	-3.77804E-001	-3.46089E-001	2.95683E-006	-3.17280E-006	6.12964E-006	-3.69000E-001	3.19373E-004	7	..........a	-327.68
	4	0.025	-3.12361E-001	-3.75807E-001	-3.44084E-001	2.96497E-006	-3.15473E-006	6.11970E-006	-3.67000E-001	2.99373E-004	7	..........a	-327.68
	5	0.03	-3.10358E-001	-3.73754E-001	-3.42056E-001	2.96643E-006	-3.14533E-006	6.11177E-006	-3.65000E-001	3.06039E-004	7	..........a	-327.68
	6	0.035	-3.08424E-001	-3.71791E-001	-3.40108E-001	2.96863E-006	-3.12920E-006	6.09783E-006	-3.63000E-001	2.99373E-004	7	..........a	-327.68
	7	0.04	-3.06414E-001	-3.69808E-001	-3.38111E-001	2.97297E-006	-3.12366E-006	6.09663E-006	-3.61000E-001	3.12706E-004	7	..........a	-327.68
	8	0.045	-3.04418E-001	-3.67771E-001	-3.36094E-001	2.97490E-006	-3.11433E-006	6.08923E-006	-3.59000E-001	3.46039E-004	7	..........a	-327.68
	9	0.05	-3.02361E-001	-3.65831E-001	-3.34096E-001	2.97750E-006	-3.10933E-006	6.08683E-006	-3.57000E-001	3.69373E-004	7	..........a	-327.68
	10	0.055	-3.00368E-001	-3.63818E-001	-3.32093E-001	2.97850E-006	-3.09919E-006	6.07770E-006	-3.55000E-001	3.12706E-004	7	..........a	-327.68
	11	0.06	-2.98381E-001	-3.61778E-001	-3.30079E-001	2.97903E-006	-3.08886E-006	6.06789E-006	-3.53000E-001	3.02706E-004	7	..........a	-327.68
	12	0.065	-2.96368E-001	-3.59748E-001	-3.28058E-001	2.97897E-006	-3.08352E-006	6.06249E-006	-3.51000E-001	3.12706E-004	7	..........a	-327.68
	13	0.07	-2.94398E-001	-3.57774E-001	-3.26086E-001	2.97783E-006	-3.07539E-006	6.05323E-006	-3.49000E-001	3.52706E-004	7	..........a	-327.68
	14	0.075	-2.92431E-001	-3.55811E-001	-3.24121E-001	2.98043E-006	-3.06592E-006	6.04636E-006	-3.47000E-001	3.32706E-004	7	..........a	-327.68
	15	0.08	-2.90421E-001	-3.53791E-001	-3.22106E-001	2.98170E-006	-3.06339E-006	6.04509E-006	-3.45000E-001	2.56039E-004	7	..........a	-327.68
	16	0.085	-2.88357E-001	-3.51728E-001	-3.20043E-001	2.98070E-006	-3.05385E-006	6.03456E-006	-3.43000E-001	3.52706E-004	7	..........a	-327.68
	17	0.09	-2.86348E-001	-3.49794E-001	-3.18071E-001	2.98263E-006	-3.05099E-006	6.03362E-006	-3.41000E-001	2.92706E-004	7	..........a	-327.68
	18	0.095	-2.84394E-001	-3.47801E-001	-3.16097E-001	2.98284E-006	-3.04725E-006	6.03009E-006	-3.39000E-001	3.02706E-004	7	..........a	-327.68
	19	0.1	-2.82428E-001	-3.45791E-001	-3.14109E-001	2.98417E-006	-3.04019E-006	6.02435E-006	-3.37000E-001	2.86039E-004	7	..........a	-327.68
	20	0.105	-2.80358E-001	-3.43711E-001	-3.12034E-001	2.98550E-006	-3.03472E-006	6.02022E-006	-3.35000E-001	3.12706E-004	7	..........a	-327.68
	21	0.11	-2.78374E-001	-3.41791E-001	-3.10083E-001	2.99030E-006	-3.03038E-006	6.02069E-006	-3.33000E-001	2.79373E-004	7	..........a	-327.68
	22	0.115	-2.76394E-001	-3.39781E-001	-3.08088E-001	2.99397E-006	-3.02545E-006	6.01942E-006	-3.31000E-001	2.89373E-004	7	..........a	-327.68
	23	0.12	-2.74384E-001	-3.37741E-001	-3.06063E-001	2.99357E-006	-3.02165E-006	6.01522E-006	-3.29000E-001	3.26039E-004	7	..........a	-327.68
	24	0.125	-2.72378E-001	-3.35724E-001	-3.04051E-001	2.99384E-006	-3.01965E-006	6.01349E-006	-3.27000E-001	3.09373E-004	7	..........a	-327.68
	25	0.13	-2.70444E-001	-3.33744E-001	-3.02094E-001	2.99784E-006	-3.01385E-006	6.01169E-006	-3.25000E-001	3.32706E-004	7	..........a	-327.68
	26	0.135	-2.68431E-001	-3.31787E-001	-3.00109E-001	2.99450E-006	-3.01305E-006	6.00755E-006	-3.23000E-001	2.86039E-004	7	..........a	-327.68
	27	0.14	-2.66501E-001	-3.29748E-001	-2.98124E-001	3.00144E-006	-3.00618E-006	6.00762E-006	-3.21000E-001	3.06039E-004	7	..........a	-327.68
	28	0.145	-2.64421E-001	-3.27718E-001	-2.96069E-001	3.00270E-006	-3.00865E-006	6.01135E-006	-3.19000E-001	2.92706E-004	7	..........a	-327.68
	29	0.15	-2.62461E-001	-3.25761E-001	-2.94111E-001	3.00464E-006	-3.00218E-006	6.00682E-006	-3.17000E-001	2.79373E-004	7	..........a	-327.68
	30	0.155	-2.60428E-001	-3.23768E-001	-2.92098E-001	3.01431E-006	-3.00351E-006	6.01782E-006	-3.15000E-001	2.92706E-004	7	..........a	-327.68
	31	0.16	-2.58424E-001	-3.21757E-001	-2.90091E-001	3.01704E-006	-2.99978E-006	6.01682E-006	-3.13000E-001	3.36039E-004	7	..........a	-327.68
	32	0.165	-2.56407E-001	-3.19807E-001	-2.88108E-001	3.02177E-006	-2.99925E-006	6.02102E-006	-3.11000E-001	2.99373E-004	7	..........a	-327.68
	33	0.17	-2.54451E-001	-3.17758E-001	-2.86104E-001	3.01864E-006	-2.99838E-006	6.01702E-006	-3.09000E-001	2.69373E-004	7	..........a	-327.68
	34	0.175	-2.52451E-001	-3.15787E-001	-2.84119E-001	3.02991E-006	-2.99411E-006	6.02402E-006	-3.07000E-001	3.32706E-004	7	..........a	-327.68
	35	0.18	-2.50478E-001	-3.13768E-001	-2.82123E-001	3.02711E-006	-2.99731E-006	6.02442E-006	-3.05000E-001	3.09373E-004	7	..........a	-327.68
	36	0.185	-2.48434E-001	-3.11707E-001	-2.80071E-001	3.03378E-006	-2.99178E-006	6.02555E-006	-3.03000E-001	3.16039E-004	7	..........a	-327.68
	37	0.19	-2.46428E-001	-3.09758E-001	-2.78093E-001	3.03651E-006	-2.99371E-006	6.03022E-006	-3.01000E-001	2.72706E-004	7	..........a	-327.68
	38	0.195	-2.44454E-001	-3.07724E-001	-2.76089E-001	3.04271E-006	-2.98951E-006	6.03222E-006	-2.99000E-001	3.26039E-004	7	..........a	-327.68
	39	0.2	-2.42454E-001	-3.05714E-001	-2.74084E-001	3.04131E-006	-2.99045E-006	6.03176E-006	-2.97000E-001	2.79373E-004	7	..........a	-327.68
	40	0.205	-2.40418E-001	-3.03744E-001	-2.72081E-001	3.04978E-006	-2.99038E-006	6.04016E-006	-2.95000E-001	3.32706E-004	7	..........a	-327.68
	41	0.21	-2.38461E-001	-3.01698E-001	-2.70079E-001	3.05278E-006	-2.99045E-006	6.04322E-006	-2.93000E-001	2.96039E-004	7	..........a	-327.68
	42	0.215	-2.36481E-001	-2.99751E-001	-2.68116E-001	3.05378E-006	-2.98825E-006	6.04202E-006	-2.91000E-001	3.09373E-004	7	..........a	-327.68
	43	0.22	-2.34434E-001	-2.97734E-001	-2.66084E-001	3.05765E-006	-2.98925E-006	6.04689E-006	-2.89000E-001	3.22706E-004	7	..........a	-327.68
	44	0.225	-2.32438E-001	-2.95704E-001	-2.64071E-001	3.06331E-006	-2.98725E-006	6.05056E-006	-2.87000E-001	3.16039E-004	7	..........a	-327.68
	45	0.23	-2.30474E-001	-2.93704E-001	-2.62089E-001	3.06298E-006	-2.98684E-006	6.04982E-006	-2.85000E-001	3.32706E-004	7	..........a	-327.68
	46	0.235	-2.28438E-001	-2.91781E-001	-2.60109E-001	3.06198E-006	-2.98344E-006	6.04542E-006	-2.83000E-001	3.46039E-004	7	..........a	-327.68
	47	0.24	-2.26504E-001	-2.89741E-001	-2.58123E-001	3.07038E-006	-2.98078E-006	6.05116E-006	-2.81000E-001	3.46039E-004	7	..........a	-327.68
	48	0.245	-2.24414E-001	-2.87701E-001	-2.56058E-001	3.06958E-006	-2.98118E-006	6.05076E-006	-2.79000E-001	3.29373E-004	7	..........a	-327.68
	49	0.25	-2.22481E-001	-2.85721E-001	-2.54101E-001	3.07458E-006	-2.97718E-006	6.05176E-006	-2.77000E-001	2.92706E-004	7	..........a	-327.68
	50	0.255	-2.20474E-001	-2.83714E-001	-2.52094E-001	3.07258E-006	-2.97751E-006	6.05009E-006	-2.75000E-001	3.56039E-004	7	..........a	-327.68
	51	0.26	-2.18511E-001	-2.81721E-001	-2.50116E-001	3.07425E-006	-2.97331E-006	6.04756E-006	-2.73000E-001	2.99373E-004	7	..........a	-327.68
	52	0.265	-2.16464E-001	-2.79701E-001	-2.48083E-001	3.07218E-006	-2.97051E-006	6.04269E-006	-2.71000E-001	3.42706E-004	7	..........a	-327.68
	53	0.27	-2.14471E-001	-2.77741E-001	-2.46106E-001	3.07411E-006	-2.96891E-006	6.04302E-006	-2.69000E-001	3.26039E-004	7	..........a	-327.68
	54	0.275	-2.12508E-001	-2.75688E-001	-2.44098E-001	3.07718E-006	-2.96471E-006	6.04189E-006	-2.67000E-001	3.22706E-004	7	..........a	-327.68
	55	0.28	-2.10478E-001	-2.73684E-001	-2.42081E-001	3.07398E-006	-2.96431E-006	6.03829E-006	-2.65000E-001	3.16039E-004	7	..........a	-327.68
	56	0.285	-2.08444E-001	-2.71641E-001	-2.40043E-001	3.07138E-006	-2.95557E-006	6.02695E-006	-2.63000E-001	2.76039E-004	7	..........a	-327.68
	57	0.29	-2.06481E-001	-2.69721E-001	-2.38101E-001	3.07291E-006	-2.95371E-006	6.02662E-006	-2.61000E-001	3.52706E-004	7	..........a	-327.68
	58	0.295	-2.04521E-001	-2.67728E-001	-2.36124E-001	3.07191E-006	-2.95117E-006	6.02309E-006	-2.59000E-001	3.19373E-004	7	..........a	-327.68
	59	0.3	-2.02484E-001	-2.65714E-001	-2.34099E-001	3.06551E-006	-2.94424E-006	6.00975E-006	-2.57000E-001	3.26039E-004	7	..........a	-327.68
	60	0.305	-2.00461E-001	-2.63721E-001	-2.32091E-001	3.06538E-006	-2.94251E-006	6.00789E-006	-2.55000E-001	3.26039E-004	7	..........a	-327.68
	61	0.31	-1.98511E-001	-2.61757E-001	-2.30134E-001	3.06271E-006	-2.93904E-006	6.00175E-006	-2.53000E-001	2.99373E-004	7	..........a	-327.68
	62	0.315	-1.96488E-001	-2.59708E-001	-2.28098E-001	3.05978E-006	-2.93344E-006	5.99322E-006	-2.51000E-001	2.92706E-004	7	..........a	-327.68
	63	0.32	-1.94504E-001	-2.57641E-001	-2.26073E-001	3.05644E-006	-2.93117E-006	5.98762E-006	-2.49000E-001	3.02706E-004	7	..........a	-327.68
	64	0.325	-1.92498E-001	-2.55701E-001	-2.24099E-001	3.05885E-006	-2.92497E-006	5.98382E-006	-2.47000E-001	3.29373E-004	7	..........a	-327.68
	65	0.33	-1.90431E-001	-2.53734E-001	-2.22083E-001	3.05391E-006	-2.92077E-006	5.97468E-006	-2.45000E-001	2.86039E-004	7	..........a	-327.68
	66	0.335	-1.88494E-001	-2.51721E-001	-2.20108E-001	3.05124E-006	-2.91330E-006	5.96455E-006	-2.43000E-001	3.16039E-004	7	..........a	-327.68
	67	0.34	-1.86498E-001	-2.49728E-001	-2.18113E-001	3.04824E-006	-2.90910E-006	5.95734E-006	-2.41000E-001	3.36039E-004	7	..........a	-327.68
	68	0.345	-1.84411E-001	-2.47631E-001	-2.16021E-001	3.04751E-006	-2.90643E-006	5.95394E-006	-2.39000E-001	2.76039E-004	7	..........a	-327.68
	69	0.35	-1.82454E-001	-2.45668E-001	-2.14061E-001	3.03944E-006	-2.90057E-006	5.94001E-006	-2.37000E-001	3.26039E-004	7	..........a	-327.68
	70	0.355	-1.80494E-001	-2.43691E-001	-2.12093E-001	3.04011E-006	-2.89330E-006	5.93341E-006	-2.35000E-001	3.09373E-004	7	..........a	-327.68
	71	0.36	-1.78498E-001	-2.41734E-001	-2.10116E-001	3.03838E-006	-2.89543E-006	5.93381E-006	-2.33000E-001	3.19373E-004	7	..........a	-327.68
	72	0.365	-1.76444E-001	-2.39658E-001	-2.08051E-001	3.03451E-006	-2.88636E-006	5.92087E-006	-2.31000E-001	2.82706E-004	7	..........a	-327.68
	73	0.37	-1.74428E-001	-2.37708E-001	-2.06068E-001	3.03398E-006	-2.88310E-006	5.91707E-006	-2.29000E-001	3.52706E-004	7	..........a	-327.68
	74	0.375	-1.72488E-001	-2.35678E-001	-2.04083E-001	3.03278E-006	-2.87923E-006	5.91201E-006	-2.27000E-001	2.79373E-004	7	..........a	-327.68
	75	0.38	-1.70514E-001	-2.33701E-001	-2.02108E-001	3.03131E-006	-2.87530E-006	5.90661E-006	-2.25000E-001	3.02706E-004	7	..........a	-327.68
	76	0.385	-1.68474E-001	-2.31688E-001	-2.00081E-001	3.02571E-006	-2.87636E-006	5.90207E-006	-2.23000E-001	3.36039E-004	7	..........a	-327.68
	77	0.39	-1.66478E-001	-2.29694E-001	-1.98086E-001	3.02771E-006	-2.86490E-006	5.89260E-006	-2.21000E-001	2.92706E-004	7	..........a	-327.68
	78	0.395	-1.64441E-001	-2.27728E-001	-1.96084E-001	3.02151E-006	-2.86823E-006	5.88974E-006	-2.19000E-001	2.86039E-004	7	..........a	-327.68
	79	0.4	-1.62504E-001	-2.25664E-001	-1.94084E-001	3.02051E-006	-2.85843E-006	5.87893E-006	-2.17000E-001	2.92706E-004	7	..........a	-327.68
	80	0.405	-1.60441E-001	-2.23658E-001	-1.92049E-001	3.02051E-006	-2.85889E-006	5.87940E-006	-2.15000E-001	3.32706E-004	7	..........a	-327.68
	81	0.41	-1.58458E-001	-2.21674E-001	-1.90066E-001	3.01757E-006	-2.85223E-006	5.86980E-006	-2.13000E-001	3.26039E-004	7	..........a	-327.68
	82	0.415	-1.56464E-001	-2.19708E-001	-1.88086E-001	3.01651E-006	-2.85436E-006	5.87087E-006	-2.11000E-001	3.39373E-004	7	..........a	-327.68
	83	0.42	-1.54494E-001	-2.17704E-001	-1.86099E-001	3.01897E-006	-2.84736E-006	5.86633E-006	-2.09000E-001	3.22706E-004	7	..........a	-327.68
	84	0.425	-1.52414E-001	-2.15674E-001	-1.84044E-001	3.01744E-006	-2.84723E-006	5.86467E-006	-2.07000E-001	3.12706E-004	7	..........a	-327.68
	85	0.43	-1.50491E-001	-2.13721E-001	-1.82106E-001	3.01397E-006	-2.84169E-006	5.85566E-006	-2.05000E-001	3.36039E-004	7	..........a	-327.68
	86	0.435	-1.48478E-001	-2.11688E-001	-1.80083E-001	3.01577E-006	-2.83936E-006	5.85513E-006	-2.03000E-001	3.49373E-004	7	..........a	-327.68
	87	0.44	-1.46451E-001	-2.09691E-001	-1.78071E-001	3.01217E-006	-2.83742E-006	5.84960E-006	-2.01000E-001	3.09373E-004	7	..........a	-327.68
	88	0.445	-1.44471E-001	-2.07698E-001	-1.76084E-001	3.01597E-006	-2.83742E-006	5.85340E-006	-1.99000E-001	3.06039E-004	7	..........a	-327.68
	89	0.45	-1.42484E-001	-2.05688E-001	-1.74086E-001	3.01084E-006	-2.83562E-006	5.84646E-006	-1.97000E-001	3.42706E-004	7	..........a	-327.68
	90	0.455	-1.40468E-001	-2.03741E-001	-1.72104E-001	3.01791E-006	-2.83089E-006	5.84880E-006	-1.95000E-001	3.02706E-004	7	..........a	-327.68
	91	0.46	-1.38458E-001	-2.01678E-001	-1.70068E-001	3.01731E-006	-2.83296E-006	5.85026E-006	-1.93000E-001	3.06039E-004	7	..........a	-327.68
	92	0.465	-1.36461E-001	-1.99684E-001	-1.68073E-001	3.01337E-006	-2.83002E-006	5.84340E-006	-1.91000E-001	3.02706E-004	7	..........a	-327.68
	93	0.47	-1.34464E-001	-1.97734E-001	-1.66099E-001	3.01831E-006	-2.82989E-006	5.84820E-006	-1.89000E-001	3.09373E-004	7	..........a	-327.68
	94	0.475	-1.32464E-001	-1.95738E-001	-1.64101E-001	3.01524E-006	-2.82776E-006	5.84300E-006	-1.87000E-001	3.49373E-004	7	..........a	-327.68
	95	0.48	-1.30464E-001	-1.93754E-001	-1.62109E-001	3.01971E-006	-2.83042E-006	5.85013E-006	-1.85000E-001	3.19373E-004	7	..........a	-327.68
	96	0.485	-1.28431E-001	-1.91711E-001	-1.60071E-001	3.01911E-006	-2.82789E-006	5.84700E-006	-1.83000E-001	2.99373E-004	7	..........a	-327.68
	97	0.49	-1.26481E-001	-1.89704E-001	-1.58093E-001	3.02277E-006	-2.82796E-006	5.85073E-006	-1.81000E-001	3.46039E-004	7	..........a	-327.68
	98	0.495	-1.24448E-001	-1.87691E-001	-1.56069E-001	3.02391E-006	-2.82942E-006	5.85333E-006	-1.79000E-001	2.79373E-004	7	..........a	-327.68
	99	0.5	-1.22504E-001	-1.85668E-001	-1.54086E-001	3.02451E-006	-2.82569E-006	5.85020E-006	-1.77000E-001	3.16039E-004	7	..........a	-327.68
	100	0.505	-1.20434E-001	-1.83668E-001	-1.52051E-001	3.02824E-006	-2.82716E-006	5.85540E-006	-1.75000E-001	3.36039E-004	7	..........a	-327.68
