EXPLAIN
TAG	SQUARE_WAVE
TITLE	LABEL	Square Wave Voltammetry	Test Identifier
DATE	LABEL	8/10/2020	Date
TIME	LABEL	13:05:29	Time
NOTES	NOTES	1	Notes...
	
PSTAT	PSTAT	REF600-24079	Potentiostat
VINIT	QUANT	-3.50000E-001	Initial E (V)
VFINAL	QUANT	-1.50000E-001	Final E (V)
STEPSIZE	QUANT	2.00000E+000	Step Size (mV)
TIMERRES	QUANT	3.33340E-005	&Timer Resolution
FREQUENCY	QUANT	2.50000E+002	Frequency (Hz)
PULSESIZE	QUANT	2.50000E+001	Pulse Size E (mV)
PULSEON	QUANT	4.00000E-003	Pulse &Time (s)
NOISEREJECT	TOGGLE	F	Noise Rejection
AREA	QUANT	2.00000E-002	Sample Area (cm^2)
IMODE	SELECTOR	1	I/E Range Mode
IRANGE	QUANT	1.00000E-002	Max Current (mA)
EQDELAY	IQUANT	10	Equil. Time (s)
IRCOMP	SELECTOR	0	IRComp
PFCOR	QUANT	5.00000E+001	PF Corr. (ohm)
CYCLES	IQUANT	101	C&ycles (#)
ELECTRODETYPE	SELECTOR	0	Electrode Type
STRIPPING	TOGGLE	F	Used for Stripping
POLARITY	TOGGLE	F	Signal Polarity
LINEFREQ	IQUANT	60	Line Frequency (Hz)
INTPERIOD	QUANT	3.3334E-005	Integration Period (s)
SEQUENCER	TOGGLE	TRUE	Run as Sequence
PSTATMODEL	IQUANT	4	Pstat Model
PSTATSECTION	LABEL	REF600-24079	Pstat Section
PSTATSERIALNO	LABEL	24079	Pstat Serial Number
CTRLMODE	IQUANT	1	Control Mode
ELECTROMETER	IQUANT	0	RE=0 or CS=1
IESTAB	IQUANT	2	I/E Stability
CASPEED	IQUANT	6	Control Amp Speed
CONVENTION	IQUANT	1	Current Convention
ICHRANGE	IQUANT	2	Ich Range
ICHRANGEMODE	TOGGLE	F	Ich Auto Range
ICHOFFSETENABLE	TOGGLE	F	Ich Offset Enable
ICHOFFSET	QUANT	0	Ich Offset (V)
ICHFILTER	IQUANT	2	Ich Filter
VCHRANGE	IQUANT	2	Vch Range
VCHRANGEMODE	TOGGLE	F	Vch Auto Range
VCHOFFSETENABLE	TOGGLE	F	Vch Offset Enable
VCHOFFSET	QUANT	0	Vch Offset (V)
VCHFILTER	IQUANT	1	Vch Filter
ACHRANGE	IQUANT	2	Ach Range
ACHOFFSETENABLE	TOGGLE	F	Ach Offset Enable
ACHOFFSET	QUANT	0	Ach Offset (V)
ACHFILTER	IQUANT	1	Ach Filter
IERANGELOWERLIMIT	IQUANT	1	I/E Range Lower Limit
IERANGEMODE	TOGGLE	F	I/E AutoRange
IERANGE	IQUANT	7	I/E Range
POSFEEDENABLE	TOGGLE	F	Positive Feedback IR Comp
POSFEEDRESISTANCE	QUANT	0	Positive Feedback Resistance (ohm)
ACHSELECT	IQUANT	0	Ach Select
SENSECABLEID	IQUANT	13	Sense Cable ID
PWRCABLEID	IQUANT	13	Power Cable ID
DCCALDATE	LABEL	6/30/2020	DC Calibration Date
ACCALDATE	LABEL	6/30/2020	AC Calibration Date
THERMOSELECT	IQUANT	1	Thermo Select
FRAMEWORKVERSION	LABEL	7.8.2	Framework Version
INSTRUMENTVERSION	LABEL	4.40	Instrument Version
CURVE	TABLE	101
	Pt	T	Vfwd	Vrev	Vstep	Ifwd	Irev	Idif	Sig	Ach	IERange	Over	Temp
	#	s	V	V	V	A	A	A	V	V	#	bits	deg C
	0	0.004	-3.24791E-001	-3.79853E-001	-3.52322E-001	4.55683E-008	-5.93225E-006	5.97781E-006	-3.75000E-001	2.74373E-004	7	..........a	-327.68
	1	0.008	-3.17799E-001	-3.77753E-001	-3.47776E-001	6.74548E-006	-6.77786E-006	1.35233E-005	-3.73000E-001	2.74373E-004	7	..........a	-327.68
	2	0.012	-3.15916E-001	-3.75824E-001	-3.45870E-001	6.87342E-006	-6.75761E-006	1.36310E-005	-3.71000E-001	2.32706E-004	7	..........a	-327.68
	3	0.016	-3.13920E-001	-3.73791E-001	-3.43855E-001	6.88400E-006	-6.74236E-006	1.36264E-005	-3.69000E-001	2.11873E-004	7	..........a	-327.68
	4	0.02	-3.11920E-001	-3.71803E-001	-3.41862E-001	6.89375E-006	-6.73369E-006	1.36274E-005	-3.67000E-001	2.07706E-004	7	..........a	-327.68
	5	0.024	-3.09833E-001	-3.69795E-001	-3.39814E-001	6.89467E-006	-6.72510E-006	1.36198E-005	-3.65000E-001	2.16039E-004	7	..........a	-327.68
	6	0.028	-3.07891E-001	-3.67687E-001	-3.37789E-001	6.90000E-006	-6.71610E-006	1.36161E-005	-3.63000E-001	2.16039E-004	7	..........a	-327.68
	7	0.032	-3.05874E-001	-3.65770E-001	-3.35822E-001	6.90025E-006	-6.71227E-006	1.36125E-005	-3.61000E-001	2.20206E-004	7	..........a	-327.68
	8	0.036	-3.03928E-001	-3.63691E-001	-3.33810E-001	6.90142E-006	-6.70719E-006	1.36086E-005	-3.59000E-001	2.28539E-004	7	..........a	-327.68
	9	0.04	-3.01895E-001	-3.61812E-001	-3.31853E-001	6.90250E-006	-6.70302E-006	1.36055E-005	-3.57000E-001	2.03539E-004	7	..........a	-327.68
	10	0.044	-2.99908E-001	-3.59812E-001	-3.29860E-001	6.90234E-006	-6.69977E-006	1.36021E-005	-3.55000E-001	2.36873E-004	7	..........a	-327.68
	11	0.048	-2.97895E-001	-3.57787E-001	-3.27841E-001	6.90200E-006	-6.69693E-006	1.35989E-005	-3.53000E-001	2.49373E-004	7	..........a	-327.68
	12	0.052	-2.95907E-001	-3.55791E-001	-3.25849E-001	6.90225E-006	-6.69377E-006	1.35960E-005	-3.51000E-001	2.24373E-004	7	..........a	-327.68
	13	0.056	-2.93795E-001	-3.53808E-001	-3.23801E-001	6.90742E-006	-6.68927E-006	1.35967E-005	-3.49000E-001	2.24373E-004	7	..........a	-327.68
	14	0.06	-2.91883E-001	-3.51753E-001	-3.21818E-001	6.90117E-006	-6.68418E-006	1.35854E-005	-3.47000E-001	2.36873E-004	7	..........a	-327.68
	15	0.064	-2.89837E-001	-3.49774E-001	-3.19805E-001	6.90467E-006	-6.68293E-006	1.35876E-005	-3.45000E-001	2.45206E-004	7	..........a	-327.68
	16	0.068	-2.87962E-001	-3.47841E-001	-3.17901E-001	6.90617E-006	-6.68485E-006	1.35910E-005	-3.43000E-001	1.95206E-004	7	..........a	-327.68
	17	0.072	-2.85857E-001	-3.45841E-001	-3.15849E-001	6.90859E-006	-6.68352E-006	1.35921E-005	-3.41000E-001	1.99373E-004	7	..........a	-327.68
	18	0.076	-2.83824E-001	-3.43787E-001	-3.13805E-001	6.90942E-006	-6.68126E-006	1.35907E-005	-3.39000E-001	2.11873E-004	7	..........a	-327.68
	19	0.08	-2.81916E-001	-3.41758E-001	-3.11837E-001	6.90750E-006	-6.68193E-006	1.35894E-005	-3.37000E-001	2.32706E-004	7	..........a	-327.68
	20	0.084	-2.79962E-001	-3.39816E-001	-3.09889E-001	6.90975E-006	-6.68410E-006	1.35939E-005	-3.35000E-001	2.24373E-004	7	..........a	-327.68
	21	0.088	-2.77849E-001	-3.37833E-001	-3.07841E-001	6.91292E-006	-6.68118E-006	1.35941E-005	-3.33000E-001	2.11873E-004	7	..........a	-327.68
	22	0.092	-2.75941E-001	-3.35749E-001	-3.05845E-001	6.91917E-006	-6.68077E-006	1.35999E-005	-3.31000E-001	2.41039E-004	7	..........a	-327.68
	23	0.096	-2.73933E-001	-3.33753E-001	-3.03843E-001	6.91509E-006	-6.67718E-006	1.35923E-005	-3.29000E-001	2.36873E-004	7	..........a	-327.68
	24	0.1	-2.71982E-001	-3.31866E-001	-3.01924E-001	6.92142E-006	-6.68001E-006	1.36014E-005	-3.27000E-001	2.11873E-004	7	..........a	-327.68
	25	0.104	-2.69899E-001	-3.29737E-001	-2.99818E-001	6.92309E-006	-6.68102E-006	1.36041E-005	-3.25000E-001	1.91039E-004	7	..........a	-327.68
	26	0.108	-2.67866E-001	-3.27783E-001	-2.97824E-001	6.92709E-006	-6.68243E-006	1.36095E-005	-3.23000E-001	2.49373E-004	7	..........a	-327.68
	27	0.112	-2.65941E-001	-3.25783E-001	-2.95862E-001	6.92876E-006	-6.68310E-006	1.36119E-005	-3.21000E-001	2.41039E-004	7	..........a	-327.68
	28	0.116	-2.63958E-001	-3.23791E-001	-2.93874E-001	6.92834E-006	-6.68552E-006	1.36139E-005	-3.19000E-001	2.36873E-004	7	..........a	-327.68
	29	0.12	-2.61941E-001	-3.21695E-001	-2.91818E-001	6.95584E-006	-6.69093E-006	1.36468E-005	-3.17000E-001	2.82706E-004	7	..........a	-327.68
	30	0.124	-2.59903E-001	-3.19745E-001	-2.89824E-001	6.93526E-006	-6.68652E-006	1.36218E-005	-3.15000E-001	2.07706E-004	7	..........a	-327.68
	31	0.128	-2.57937E-001	-3.17674E-001	-2.87805E-001	6.94034E-006	-6.68510E-006	1.36254E-005	-3.13000E-001	2.16039E-004	7	..........a	-327.68
	32	0.132	-2.56016E-001	-3.15770E-001	-2.85893E-001	6.94484E-006	-6.68952E-006	1.36344E-005	-3.11000E-001	1.99373E-004	7	..........a	-327.68
	33	0.136	-2.54012E-001	-3.13728E-001	-2.83870E-001	6.94718E-006	-6.69293E-006	1.36401E-005	-3.09000E-001	2.36873E-004	7	..........a	-327.68
	34	0.14	-2.51970E-001	-3.11749E-001	-2.81860E-001	6.95284E-006	-6.69243E-006	1.36453E-005	-3.07000E-001	2.20206E-004	7	..........a	-327.68
	35	0.144	-2.49949E-001	-3.09712E-001	-2.79830E-001	6.95409E-006	-6.69160E-006	1.36457E-005	-3.05000E-001	2.53539E-004	7	..........a	-327.68
	36	0.148	-2.47941E-001	-3.07778E-001	-2.77860E-001	6.95401E-006	-6.69468E-006	1.36487E-005	-3.03000E-001	2.36873E-004	7	..........a	-327.68
	37	0.152	-2.46016E-001	-3.05716E-001	-2.75866E-001	6.95793E-006	-6.69777E-006	1.36557E-005	-3.01000E-001	2.24373E-004	7	..........a	-327.68
	38	0.156	-2.43995E-001	-3.03782E-001	-2.73889E-001	6.96893E-006	-6.69885E-006	1.36678E-005	-2.99000E-001	2.70206E-004	7	..........a	-327.68
	39	0.16	-2.41949E-001	-3.01699E-001	-2.71824E-001	6.96534E-006	-6.69335E-006	1.36587E-005	-2.97000E-001	2.20206E-004	7	..........a	-327.68
	40	0.164	-2.39991E-001	-2.99666E-001	-2.69828E-001	6.96709E-006	-6.69427E-006	1.36614E-005	-2.95000E-001	2.49373E-004	7	..........a	-327.68
	41	0.168	-2.37937E-001	-2.97728E-001	-2.67833E-001	6.97243E-006	-6.69668E-006	1.36691E-005	-2.93000E-001	2.07706E-004	7	..........a	-327.68
	42	0.172	-2.35883E-001	-2.95712E-001	-2.65797E-001	6.97093E-006	-6.69527E-006	1.36662E-005	-2.91000E-001	2.20206E-004	7	..........a	-327.68
	43	0.176	-2.33903E-001	-2.93724E-001	-2.63814E-001	6.97543E-006	-6.69593E-006	1.36714E-005	-2.89000E-001	2.32706E-004	7	..........a	-327.68
	44	0.18	-2.31958E-001	-2.91766E-001	-2.61862E-001	6.97135E-006	-6.69068E-006	1.36620E-005	-2.87000E-001	2.24373E-004	7	..........a	-327.68
	45	0.184	-2.30045E-001	-2.89720E-001	-2.59883E-001	6.97285E-006	-6.69218E-006	1.36650E-005	-2.85000E-001	2.20206E-004	7	..........a	-327.68
	46	0.188	-2.27899E-001	-2.87716E-001	-2.57808E-001	6.97276E-006	-6.69110E-006	1.36639E-005	-2.83000E-001	2.32706E-004	7	..........a	-327.68
	47	0.192	-2.26020E-001	-2.85691E-001	-2.55855E-001	6.97968E-006	-6.68843E-006	1.36681E-005	-2.81000E-001	2.49373E-004	7	..........a	-327.68
	48	0.196	-2.24016E-001	-2.83649E-001	-2.53833E-001	6.97276E-006	-6.68452E-006	1.36573E-005	-2.79000E-001	1.91039E-004	7	..........a	-327.68
	49	0.2	-2.22037E-001	-2.81724E-001	-2.51880E-001	6.97185E-006	-6.67901E-006	1.36509E-005	-2.77000E-001	2.57706E-004	7	..........a	-327.68
	50	0.204	-2.20033E-001	-2.79612E-001	-2.49822E-001	6.97118E-006	-6.68043E-006	1.36516E-005	-2.75000E-001	2.24373E-004	7	..........a	-327.68
	51	0.208	-2.18041E-001	-2.77683E-001	-2.47862E-001	6.97151E-006	-6.67385E-006	1.36454E-005	-2.73000E-001	2.53539E-004	7	..........a	-327.68
	52	0.212	-2.16020E-001	-2.75724E-001	-2.45872E-001	6.96743E-006	-6.66985E-006	1.36373E-005	-2.71000E-001	2.20206E-004	7	..........a	-327.68
	53	0.216	-2.14033E-001	-2.73653E-001	-2.43843E-001	6.96201E-006	-6.66626E-006	1.36283E-005	-2.69000E-001	2.24373E-004	7	..........a	-327.68
	54	0.22	-2.11970E-001	-2.71703E-001	-2.41837E-001	6.96193E-006	-6.66326E-006	1.36252E-005	-2.67000E-001	2.57706E-004	7	..........a	-327.68
	55	0.224	-2.09966E-001	-2.69695E-001	-2.39830E-001	6.95659E-006	-6.65785E-006	1.36144E-005	-2.65000E-001	1.99373E-004	7	..........a	-327.68
	56	0.228	-2.07953E-001	-2.67616E-001	-2.37785E-001	6.96009E-006	-6.65184E-006	1.36119E-005	-2.63000E-001	2.36873E-004	7	..........a	-327.68
	57	0.232	-2.05941E-001	-2.65616E-001	-2.35778E-001	6.94626E-006	-6.64476E-006	1.35910E-005	-2.61000E-001	2.24373E-004	7	..........a	-327.68
	58	0.236	-2.03949E-001	-2.63687E-001	-2.33818E-001	6.94368E-006	-6.63768E-006	1.35814E-005	-2.59000E-001	2.11873E-004	7	..........a	-327.68
	59	0.24	-2.01958E-001	-2.61753E-001	-2.31855E-001	6.94209E-006	-6.63493E-006	1.35770E-005	-2.57000E-001	2.49373E-004	7	..........a	-327.68
	60	0.244	-1.99949E-001	-2.59708E-001	-2.29828E-001	6.93676E-006	-6.62742E-006	1.35642E-005	-2.55000E-001	2.41039E-004	7	..........a	-327.68
	61	0.248	-1.98033E-001	-2.57724E-001	-2.27878E-001	6.92984E-006	-6.62492E-006	1.35548E-005	-2.53000E-001	2.28539E-004	7	..........a	-327.68
	62	0.252	-1.96033E-001	-2.55733E-001	-2.25883E-001	6.92284E-006	-6.61834E-006	1.35412E-005	-2.51000E-001	2.66039E-004	7	..........a	-327.68
	63	0.256	-1.93949E-001	-2.53724E-001	-2.23837E-001	6.92142E-006	-6.61701E-006	1.35384E-005	-2.49000E-001	2.41039E-004	7	..........a	-327.68
	64	0.26	-1.92003E-001	-2.51799E-001	-2.21901E-001	6.91617E-006	-6.60901E-006	1.35252E-005	-2.47000E-001	2.24373E-004	7	..........a	-327.68
	65	0.264	-1.89887E-001	-2.49683E-001	-2.19785E-001	6.91359E-006	-6.60217E-006	1.35158E-005	-2.45000E-001	2.03539E-004	7	..........a	-327.68
	66	0.268	-1.87933E-001	-2.47724E-001	-2.17828E-001	6.90384E-006	-6.59609E-006	1.34999E-005	-2.43000E-001	2.36873E-004	7	..........a	-327.68
	67	0.272	-1.85966E-001	-2.45745E-001	-2.15855E-001	6.90259E-006	-6.59142E-006	1.34940E-005	-2.41000E-001	2.32706E-004	7	..........a	-327.68
	68	0.276	-1.83970E-001	-2.43716E-001	-2.13843E-001	6.89792E-006	-6.58575E-006	1.34837E-005	-2.39000E-001	1.91039E-004	7	..........a	-327.68
	69	0.28	-1.81903E-001	-2.41728E-001	-2.11816E-001	6.89108E-006	-6.58209E-006	1.34732E-005	-2.37000E-001	2.32706E-004	7	..........a	-327.68
	70	0.284	-1.79937E-001	-2.39828E-001	-2.09883E-001	6.89167E-006	-6.58067E-006	1.34723E-005	-2.35000E-001	2.20206E-004	7	..........a	-327.68
	71	0.288	-1.77866E-001	-2.37766E-001	-2.07816E-001	6.88067E-006	-6.57558E-006	1.34563E-005	-2.33000E-001	2.03539E-004	7	..........a	-327.68
	72	0.292	-1.75937E-001	-2.35749E-001	-2.05843E-001	6.88317E-006	-6.57117E-006	1.34543E-005	-2.31000E-001	2.32706E-004	7	..........a	-327.68
	73	0.296	-1.73878E-001	-2.33712E-001	-2.03795E-001	6.87392E-006	-6.56808E-006	1.34420E-005	-2.29000E-001	2.53539E-004	7	..........a	-327.68
	74	0.3	-1.71958E-001	-2.31741E-001	-2.01849E-001	6.87350E-006	-6.56183E-006	1.34353E-005	-2.27000E-001	2.16039E-004	7	..........a	-327.68
	75	0.304	-1.69899E-001	-2.29733E-001	-1.99816E-001	6.86917E-006	-6.55975E-006	1.34289E-005	-2.25000E-001	2.45206E-004	7	..........a	-327.68
	76	0.308	-1.67908E-001	-2.27791E-001	-1.97849E-001	6.86741E-006	-6.55241E-006	1.34198E-005	-2.23000E-001	2.28539E-004	7	..........a	-327.68
	77	0.312	-1.65908E-001	-2.25728E-001	-1.95818E-001	6.86291E-006	-6.54875E-006	1.34117E-005	-2.21000E-001	2.32706E-004	7	..........a	-327.68
	78	0.316	-1.63803E-001	-2.23837E-001	-1.93820E-001	6.85883E-006	-6.54866E-006	1.34075E-005	-2.19000E-001	2.41039E-004	7	..........a	-327.68
	79	0.32	-1.61924E-001	-2.21758E-001	-1.91841E-001	6.85733E-006	-6.54583E-006	1.34032E-005	-2.17000E-001	2.32706E-004	7	..........a	-327.68
	80	0.324	-1.59858E-001	-2.19783E-001	-1.89820E-001	6.84966E-006	-6.54533E-006	1.33950E-005	-2.15000E-001	2.49373E-004	7	..........a	-327.68
	81	0.328	-1.57916E-001	-2.17695E-001	-1.87805E-001	6.85466E-006	-6.54175E-006	1.33964E-005	-2.13000E-001	2.49373E-004	7	..........a	-327.68
	82	0.332	-1.55808E-001	-2.15749E-001	-1.85778E-001	6.84608E-006	-6.54250E-006	1.33886E-005	-2.11000E-001	2.11873E-004	7	..........a	-327.68
	83	0.336	-1.53949E-001	-2.13674E-001	-1.83812E-001	6.84749E-006	-6.53733E-006	1.33848E-005	-2.09000E-001	2.16039E-004	7	..........a	-327.68
	84	0.34	-1.51816E-001	-2.11866E-001	-1.81841E-001	6.84458E-006	-6.53425E-006	1.33788E-005	-2.07000E-001	2.20206E-004	7	..........a	-327.68
	85	0.344	-1.49891E-001	-2.09816E-001	-1.79853E-001	6.84083E-006	-6.53191E-006	1.33727E-005	-2.05000E-001	2.45206E-004	7	..........a	-327.68
	86	0.348	-1.47858E-001	-2.07837E-001	-1.77847E-001	6.83999E-006	-6.53558E-006	1.33756E-005	-2.03000E-001	2.16039E-004	7	..........a	-327.68
	87	0.352	-1.45874E-001	-2.05758E-001	-1.75816E-001	6.83666E-006	-6.52916E-006	1.33658E-005	-2.01000E-001	2.03539E-004	7	..........a	-327.68
	88	0.356	-1.43858E-001	-2.03853E-001	-1.73855E-001	6.83774E-006	-6.52841E-006	1.33662E-005	-1.99000E-001	1.95206E-004	7	..........a	-327.68
	89	0.36	-1.41878E-001	-2.01824E-001	-1.71851E-001	6.83233E-006	-6.52799E-006	1.33603E-005	-1.97000E-001	2.28539E-004	7	..........a	-327.68
	90	0.364	-1.39808E-001	-1.99699E-001	-1.69753E-001	6.84008E-006	-6.53083E-006	1.33709E-005	-1.95000E-001	2.07706E-004	7	..........a	-327.68
	91	0.368	-1.37812E-001	-1.97737E-001	-1.67774E-001	6.83466E-006	-6.52716E-006	1.33618E-005	-1.93000E-001	1.70206E-004	7	..........a	-327.68
	92	0.372	-1.35903E-001	-1.95824E-001	-1.65864E-001	6.83533E-006	-6.52516E-006	1.33605E-005	-1.91000E-001	2.45206E-004	7	..........a	-327.68
	93	0.376	-1.33870E-001	-1.93833E-001	-1.63851E-001	6.83449E-006	-6.52391E-006	1.33584E-005	-1.89000E-001	2.07706E-004	7	..........a	-327.68
	94	0.38	-1.31749E-001	-1.91845E-001	-1.61797E-001	6.83541E-006	-6.52441E-006	1.33598E-005	-1.87000E-001	2.11873E-004	7	..........a	-327.68
	95	0.384	-1.29853E-001	-1.89762E-001	-1.59808E-001	6.83791E-006	-6.52908E-006	1.33670E-005	-1.85000E-001	2.28539E-004	7	..........a	-327.68
	96	0.388	-1.27762E-001	-1.87753E-001	-1.57758E-001	6.83341E-006	-6.52749E-006	1.33609E-005	-1.83000E-001	2.24373E-004	7	..........a	-327.68
	97	0.392	-1.25899E-001	-1.85870E-001	-1.55885E-001	6.83658E-006	-6.52816E-006	1.33647E-005	-1.81000E-001	2.16039E-004	7	..........a	-327.68
	98	0.396	-1.23878E-001	-1.83741E-001	-1.53810E-001	6.83066E-006	-6.52558E-006	1.33562E-005	-1.79000E-001	2.41039E-004	7	..........a	-327.68
	99	0.4	-1.21858E-001	-1.81758E-001	-1.51808E-001	6.83999E-006	-6.52849E-006	1.33685E-005	-1.77000E-001	2.28539E-004	7	..........a	-327.68
	100	0.404	-1.19866E-001	-1.79770E-001	-1.49818E-001	6.83383E-006	-6.52616E-006	1.33600E-005	-1.75000E-001	1.91039E-004	7	..........a	-327.68
