EXPLAIN
TAG	SQUARE_WAVE
TITLE	LABEL	Square Wave Voltammetry	Test Identifier
DATE	LABEL	8/10/2020	Date
TIME	LABEL	15:07:05	Time
NOTES	NOTES	1	Notes...
	 STD2 0.1 fg/mL 08102
PSTAT	PSTAT	REF600-24079	Potentiostat
VINIT	QUANT	-3.50000E-001	Initial E (V)
VFINAL	QUANT	-1.50000E-001	Final E (V)
STEPSIZE	QUANT	2.00000E+000	Step Size (mV)
TIMERRES	QUANT	3.33340E-005	&Timer Resolution
FREQUENCY	QUANT	1.00000E+001	Frequency (Hz)
PULSESIZE	QUANT	2.50000E+001	Pulse Size E (mV)
PULSEON	QUANT	1.00000E-001	Pulse &Time (s)
NOISEREJECT	TOGGLE	F	Noise Rejection
AREA	QUANT	2.00000E-002	Sample Area (cm^2)
IMODE	SELECTOR	1	I/E Range Mode
IRANGE	QUANT	1.00000E-003	Max Current (mA)
EQDELAY	IQUANT	10	Equil. Time (s)
IRCOMP	SELECTOR	0	IRComp
PFCOR	QUANT	5.00000E+001	PF Corr. (ohm)
CYCLES	IQUANT	101	C&ycles (#)
ELECTRODETYPE	SELECTOR	0	Electrode Type
STRIPPING	TOGGLE	F	Used for Stripping
POLARITY	TOGGLE	F	Signal Polarity
LINEFREQ	IQUANT	60	Line Frequency (Hz)
INTPERIOD	QUANT	3.3334E-005	Integration Period (s)
SEQUENCER	TOGGLE	TRUE	Run as Sequence
PSTATMODEL	IQUANT	4	Pstat Model
PSTATSECTION	LABEL	REF600-24079	Pstat Section
PSTATSERIALNO	LABEL	24079	Pstat Serial Number
CTRLMODE	IQUANT	1	Control Mode
ELECTROMETER	IQUANT	0	RE=0 or CS=1
IESTAB	IQUANT	2	I/E Stability
CASPEED	IQUANT	6	Control Amp Speed
CONVENTION	IQUANT	1	Current Convention
ICHRANGE	IQUANT	2	Ich Range
ICHRANGEMODE	TOGGLE	F	Ich Auto Range
ICHOFFSETENABLE	TOGGLE	F	Ich Offset Enable
ICHOFFSET	QUANT	0	Ich Offset (V)
ICHFILTER	IQUANT	2	Ich Filter
VCHRANGE	IQUANT	2	Vch Range
VCHRANGEMODE	TOGGLE	F	Vch Auto Range
VCHOFFSETENABLE	TOGGLE	F	Vch Offset Enable
VCHOFFSET	QUANT	0	Vch Offset (V)
VCHFILTER	IQUANT	2	Vch Filter
ACHRANGE	IQUANT	2	Ach Range
ACHOFFSETENABLE	TOGGLE	F	Ach Offset Enable
ACHOFFSET	QUANT	0	Ach Offset (V)
ACHFILTER	IQUANT	1	Ach Filter
IERANGELOWERLIMIT	IQUANT	1	I/E Range Lower Limit
IERANGEMODE	TOGGLE	F	I/E AutoRange
IERANGE	IQUANT	6	I/E Range
POSFEEDENABLE	TOGGLE	F	Positive Feedback IR Comp
POSFEEDRESISTANCE	QUANT	0	Positive Feedback Resistance (ohm)
ACHSELECT	IQUANT	0	Ach Select
SENSECABLEID	IQUANT	13	Sense Cable ID
PWRCABLEID	IQUANT	13	Power Cable ID
DCCALDATE	LABEL	6/30/2020	DC Calibration Date
ACCALDATE	LABEL	6/30/2020	AC Calibration Date
THERMOSELECT	IQUANT	1	Thermo Select
FRAMEWORKVERSION	LABEL	7.8.2	Framework Version
INSTRUMENTVERSION	LABEL	4.40	Instrument Version
CURVE	TABLE	101
	Pt	T	Vfwd	Vrev	Vstep	Ifwd	Irev	Idif	Sig	Ach	IERange	Over	Temp
	#	s	V	V	V	A	A	A	V	V	#	bits	deg C
	0	0.1	-3.24847E-001	-3.74859E-001	-3.49853E-001	-5.82745E-008	-1.12053E-007	5.37788E-008	-3.75000E-001	3.83539E-004	6	..........a	-327.68
	1	0.2	-3.22843E-001	-3.72875E-001	-3.47859E-001	-4.43534E-008	-1.06111E-007	6.17575E-008	-3.73000E-001	3.75039E-004	6	..........a	-327.68
	2	0.3	-3.20869E-001	-3.70762E-001	-3.45816E-001	-4.11693E-008	-1.03130E-007	6.19602E-008	-3.71000E-001	3.85706E-004	6	..........a	-327.68
	3	0.4	-3.18874E-001	-3.68872E-001	-3.43873E-001	-3.94114E-008	-1.01184E-007	6.17725E-008	-3.69000E-001	3.81373E-004	6	..........a	-327.68
	4	0.5	-3.16715E-001	-3.66904E-001	-3.41809E-001	-3.78856E-008	-9.94777E-008	6.15922E-008	-3.67000E-001	3.68373E-004	6	..........a	-327.68
	5	0.6	-3.14854E-001	-3.64850E-001	-3.39852E-001	-3.67621E-008	-9.80239E-008	6.12618E-008	-3.65000E-001	3.77039E-004	6	..........a	-327.68
	6	0.7	-3.12878E-001	-3.62788E-001	-3.37833E-001	-3.55383E-008	-9.64880E-008	6.09497E-008	-3.63000E-001	3.94039E-004	6	..........a	-327.68
	7	0.8	-3.10878E-001	-3.60842E-001	-3.35860E-001	-3.44365E-008	-9.49148E-008	6.04784E-008	-3.61000E-001	3.70039E-004	6	..........a	-327.68
	8	0.9	-3.08813E-001	-3.58856E-001	-3.33834E-001	-3.32813E-008	-9.34460E-008	6.01647E-008	-3.59000E-001	3.71706E-004	6	..........a	-327.68
	9	1	-3.06810E-001	-3.56775E-001	-3.31792E-001	-3.22229E-008	-9.22341E-008	6.00113E-008	-3.57000E-001	3.84706E-004	6	..........a	-327.68
	10	1.1	-3.04872E-001	-3.54815E-001	-3.29843E-001	-3.14077E-008	-9.08830E-008	5.94752E-008	-3.55000E-001	3.79873E-004	6	..........a	-327.68
	11	1.2	-3.02895E-001	-3.52875E-001	-3.27885E-001	-3.02836E-008	-8.94531E-008	5.91695E-008	-3.53000E-001	3.74539E-004	6	..........a	-327.68
	12	1.3	-3.00870E-001	-3.50875E-001	-3.25873E-001	-2.92921E-008	-8.82890E-008	5.89968E-008	-3.51000E-001	3.70539E-004	6	..........a	-327.68
	13	1.4	-2.98841E-001	-3.48874E-001	-3.23858E-001	-2.83334E-008	-8.69238E-008	5.85905E-008	-3.49000E-001	3.73206E-004	6	..........a	-327.68
	14	1.5	-2.96884E-001	-3.46856E-001	-3.21870E-001	-2.71999E-008	-8.56433E-008	5.84434E-008	-3.47000E-001	3.73373E-004	6	..........a	-327.68
	15	1.6	-2.94878E-001	-3.44872E-001	-3.19875E-001	-2.63298E-008	-8.45948E-008	5.82651E-008	-3.45000E-001	3.82039E-004	6	..........a	-327.68
	16	1.7	-2.92729E-001	-3.42898E-001	-3.17814E-001	-2.54840E-008	-8.34964E-008	5.80124E-008	-3.43000E-001	3.84706E-004	6	..........a	-327.68
	17	1.8	-2.90781E-001	-3.40873E-001	-3.15827E-001	-2.44139E-008	-8.22485E-008	5.78347E-008	-3.41000E-001	3.83373E-004	6	..........a	-327.68
	18	1.9	-2.88902E-001	-3.38806E-001	-3.13854E-001	-2.33627E-008	-8.10441E-008	5.76813E-008	-3.39000E-001	3.84206E-004	6	..........a	-327.68
	19	2	-2.86870E-001	-3.36855E-001	-3.11863E-001	-2.25736E-008	-8.01836E-008	5.76100E-008	-3.37000E-001	3.96873E-004	6	..........a	-327.68
	20	2.1	-2.84785E-001	-3.34858E-001	-3.09821E-001	-2.16052E-008	-7.90748E-008	5.74696E-008	-3.35000E-001	3.77706E-004	6	..........a	-327.68
	21	2.2	-2.82791E-001	-3.32805E-001	-3.07798E-001	-2.09211E-008	-7.77616E-008	5.68406E-008	-3.33000E-001	3.86039E-004	6	..........a	-327.68
	22	2.3	-2.80886E-001	-3.30786E-001	-3.05836E-001	-1.98986E-008	-7.70519E-008	5.71533E-008	-3.31000E-001	3.82206E-004	6	..........a	-327.68
	23	2.4	-2.78857E-001	-3.28877E-001	-3.03867E-001	-1.90305E-008	-7.59164E-008	5.68859E-008	-3.29000E-001	3.85706E-004	6	..........a	-327.68
	24	2.5	-2.76825E-001	-3.26867E-001	-3.01846E-001	-1.79467E-008	-7.49413E-008	5.69946E-008	-3.27000E-001	3.84373E-004	6	..........a	-327.68
	25	2.6	-2.74837E-001	-3.24862E-001	-2.99850E-001	-1.70239E-008	-7.41622E-008	5.71383E-008	-3.25000E-001	3.91539E-004	6	..........a	-327.68
	26	2.7	-2.72867E-001	-3.22844E-001	-2.97855E-001	-1.60931E-008	-7.33354E-008	5.72423E-008	-3.23000E-001	3.86873E-004	6	..........a	-327.68
	27	2.8	-2.70877E-001	-3.20866E-001	-2.95871E-001	-1.53457E-008	-7.22880E-008	5.69423E-008	-3.21000E-001	3.75706E-004	6	..........a	-327.68
	28	2.9	-2.68872E-001	-3.18879E-001	-2.93876E-001	-1.43249E-008	-7.16545E-008	5.73296E-008	-3.19000E-001	3.86873E-004	6	..........a	-327.68
	29	3	-2.66778E-001	-3.16789E-001	-2.91783E-001	-1.34191E-008	-7.08134E-008	5.73943E-008	-3.17000E-001	3.82206E-004	6	..........a	-327.68
	30	3.1	-2.64872E-001	-3.14856E-001	-2.89864E-001	-1.24037E-008	-7.00963E-008	5.76927E-008	-3.15000E-001	3.83539E-004	6	..........a	-327.68
	31	3.2	-2.62882E-001	-3.12874E-001	-2.87878E-001	-1.16022E-008	-6.91592E-008	5.75570E-008	-3.13000E-001	3.90873E-004	6	..........a	-327.68
	32	3.3	-2.60737E-001	-3.10851E-001	-2.85794E-001	-1.09218E-008	-6.86672E-008	5.77453E-008	-3.11000E-001	3.93373E-004	6	..........a	-327.68
	33	3.4	-2.58788E-001	-3.08827E-001	-2.83807E-001	-9.90534E-009	-6.78597E-008	5.79544E-008	-3.09000E-001	3.97039E-004	6	..........a	-327.68
	34	3.5	-2.56837E-001	-3.06805E-001	-2.81821E-001	-9.11958E-009	-6.70940E-008	5.79744E-008	-3.07000E-001	3.85706E-004	6	..........a	-327.68
	35	3.6	-2.54888E-001	-3.04886E-001	-2.79887E-001	-8.46249E-009	-6.66766E-008	5.82141E-008	-3.05000E-001	3.97206E-004	6	..........a	-327.68
	36	3.7	-2.52820E-001	-3.02885E-001	-2.77853E-001	-7.72873E-009	-6.57494E-008	5.80207E-008	-3.03000E-001	4.00373E-004	6	..........a	-327.68
	37	3.8	-2.50824E-001	-3.00861E-001	-2.75842E-001	-6.67827E-009	-6.50804E-008	5.84021E-008	-3.01000E-001	3.96539E-004	6	..........a	-327.68
	38	3.9	-2.48877E-001	-2.98850E-001	-2.73863E-001	-6.19687E-009	-6.44756E-008	5.82788E-008	-2.99000E-001	4.00539E-004	6	..........a	-327.68
	39	4	-2.46863E-001	-2.96872E-001	-2.71868E-001	-5.36410E-009	-6.39102E-008	5.85461E-008	-2.97000E-001	3.91873E-004	6	..........a	-327.68
	40	4.1	-2.44862E-001	-2.94848E-001	-2.69855E-001	-4.59967E-009	-6.32471E-008	5.86475E-008	-2.95000E-001	3.90206E-004	6	..........a	-327.68
	41	4.2	-2.42768E-001	-2.92711E-001	-2.67739E-001	-3.89758E-009	-6.27134E-008	5.88158E-008	-2.93000E-001	3.86706E-004	6	..........a	-327.68
	42	4.3	-2.40848E-001	-2.90781E-001	-2.65815E-001	-3.42919E-009	-6.19293E-008	5.85001E-008	-2.91000E-001	3.73373E-004	6	..........a	-327.68
	43	4.4	-2.38894E-001	-2.88891E-001	-2.63892E-001	-2.72676E-009	-6.14626E-008	5.87358E-008	-2.89000E-001	3.93206E-004	6	..........a	-327.68
	44	4.5	-2.36822E-001	-2.86853E-001	-2.61837E-001	-2.27137E-009	-6.07495E-008	5.84781E-008	-2.87000E-001	3.89206E-004	6	..........a	-327.68
	45	4.6	-2.34789E-001	-2.84802E-001	-2.59795E-001	-1.77998E-009	-6.01481E-008	5.83681E-008	-2.85000E-001	3.92373E-004	6	..........a	-327.68
	46	4.7	-2.32834E-001	-2.82803E-001	-2.57818E-001	-8.93197E-010	-5.94687E-008	5.85755E-008	-2.83000E-001	3.93873E-004	6	..........a	-327.68
	47	4.8	-2.30855E-001	-2.80881E-001	-2.55868E-001	-6.14828E-010	-5.87812E-008	5.81664E-008	-2.81000E-001	3.88706E-004	6	..........a	-327.68
	48	4.9	-2.28797E-001	-2.78852E-001	-2.53824E-001	-2.34780E-010	-5.78881E-008	5.76533E-008	-2.79000E-001	3.79039E-004	6	..........a	-327.68
	49	5	-2.26795E-001	-2.76845E-001	-2.51820E-001	1.33934E-010	-5.74661E-008	5.76000E-008	-2.77000E-001	3.75706E-004	6	..........a	-327.68
	50	5.1	-2.24852E-001	-2.74830E-001	-2.49841E-001	6.99672E-010	-5.68323E-008	5.75320E-008	-2.75000E-001	3.87706E-004	6	..........a	-327.68
	51	5.2	-2.22871E-001	-2.72845E-001	-2.47858E-001	1.03271E-009	-5.58969E-008	5.69296E-008	-2.73000E-001	3.73873E-004	6	..........a	-327.68
	52	5.3	-2.20854E-001	-2.70844E-001	-2.45849E-001	1.41510E-009	-5.52908E-008	5.67059E-008	-2.71000E-001	3.92873E-004	6	..........a	-327.68
	53	5.4	-2.18854E-001	-2.68849E-001	-2.43852E-001	1.74381E-009	-5.45320E-008	5.62758E-008	-2.69000E-001	3.95373E-004	6	..........a	-327.68
	54	5.5	-2.16855E-001	-2.66771E-001	-2.41813E-001	2.15686E-009	-5.38086E-008	5.59655E-008	-2.67000E-001	3.89706E-004	6	..........a	-327.68
	55	5.6	-2.14875E-001	-2.64878E-001	-2.39877E-001	2.49557E-009	-5.32209E-008	5.57164E-008	-2.65000E-001	4.13206E-004	6	..........a	-327.68
	56	5.7	-2.12820E-001	-2.62872E-001	-2.37846E-001	2.75993E-009	-5.21167E-008	5.48766E-008	-2.63000E-001	3.96706E-004	6	..........a	-327.68
	57	5.8	-2.10824E-001	-2.60825E-001	-2.35824E-001	3.05297E-009	-5.12746E-008	5.43276E-008	-2.61000E-001	3.75539E-004	6	..........a	-327.68
	58	5.9	-2.08852E-001	-2.58800E-001	-2.33826E-001	3.50170E-009	-5.07809E-008	5.42826E-008	-2.59000E-001	3.60706E-004	6	..........a	-327.68
	59	6	-2.06882E-001	-2.56862E-001	-2.31872E-001	3.76106E-009	-4.99864E-008	5.37475E-008	-2.57000E-001	3.63206E-004	6	..........a	-327.68
	60	6.1	-2.04790E-001	-2.54887E-001	-2.29838E-001	4.08810E-009	-4.92414E-008	5.33295E-008	-2.55000E-001	3.71373E-004	6	..........a	-327.68
	61	6.2	-2.02793E-001	-2.52851E-001	-2.27822E-001	4.39148E-009	-4.84413E-008	5.28327E-008	-2.53000E-001	3.84873E-004	6	..........a	-327.68
	62	6.3	-2.00853E-001	-2.50827E-001	-2.25840E-001	4.84287E-009	-4.78512E-008	5.26940E-008	-2.51000E-001	3.68873E-004	6	..........a	-327.68
	63	6.4	-1.98883E-001	-2.48874E-001	-2.23879E-001	5.26659E-009	-4.71041E-008	5.23707E-008	-2.49000E-001	3.82206E-004	6	..........a	-327.68
	64	6.5	-1.96857E-001	-2.46867E-001	-2.21862E-001	5.52395E-009	-4.61863E-008	5.17103E-008	-2.47000E-001	3.75206E-004	6	..........a	-327.68
	65	6.6	-1.94849E-001	-2.44874E-001	-2.19861E-001	5.80465E-009	-4.55652E-008	5.13699E-008	-2.45000E-001	3.72706E-004	6	..........a	-327.68
	66	6.7	-1.92890E-001	-2.42765E-001	-2.17828E-001	6.22171E-009	-4.47941E-008	5.10158E-008	-2.43000E-001	3.71373E-004	6	..........a	-327.68
	67	6.8	-1.90894E-001	-2.40888E-001	-2.15891E-001	6.36339E-009	-4.42010E-008	5.05644E-008	-2.41000E-001	3.78539E-004	6	..........a	-327.68
	68	6.9	-1.88753E-001	-2.38883E-001	-2.13818E-001	6.86346E-009	-4.33763E-008	5.02397E-008	-2.39000E-001	3.79873E-004	6	..........a	-327.68
	69	7	-1.86803E-001	-2.36853E-001	-2.11828E-001	7.04581E-009	-4.27659E-008	4.98117E-008	-2.37000E-001	3.81039E-004	6	..........a	-327.68
	70	7.1	-1.84880E-001	-2.34798E-001	-2.09839E-001	7.41619E-009	-4.22061E-008	4.96223E-008	-2.35000E-001	3.90373E-004	6	..........a	-327.68
	71	7.2	-1.82865E-001	-2.32852E-001	-2.07858E-001	7.98060E-009	-4.13944E-008	4.93750E-008	-2.33000E-001	3.70706E-004	6	..........a	-327.68
	72	7.3	-1.80744E-001	-2.30862E-001	-2.05803E-001	8.18262E-009	-4.06082E-008	4.87909E-008	-2.31000E-001	3.75039E-004	6	..........a	-327.68
	73	7.4	-1.78779E-001	-2.28726E-001	-2.03753E-001	8.60701E-009	-4.02035E-008	4.88105E-008	-2.29000E-001	3.71373E-004	6	..........a	-327.68
	74	7.5	-1.76830E-001	-2.26808E-001	-2.01819E-001	9.07774E-009	-3.95464E-008	4.86242E-008	-2.27000E-001	3.86873E-004	6	..........a	-327.68
	75	7.6	-1.74876E-001	-2.24863E-001	-1.99870E-001	9.26843E-009	-3.88870E-008	4.81555E-008	-2.25000E-001	3.86039E-004	6	..........a	-327.68
	76	7.7	-1.72813E-001	-2.22868E-001	-1.97841E-001	9.54747E-009	-3.84906E-008	4.80381E-008	-2.23000E-001	3.91039E-004	6	..........a	-327.68
	77	7.8	-1.70824E-001	-2.20851E-001	-1.95838E-001	9.59614E-009	-3.75529E-008	4.71490E-008	-2.21000E-001	3.65706E-004	6	..........a	-327.68
	78	7.9	-1.68864E-001	-2.18861E-001	-1.93863E-001	1.02309E-008	-3.74742E-008	4.77051E-008	-2.19000E-001	3.67539E-004	6	..........a	-327.68
	79	8	-1.66888E-001	-2.16860E-001	-1.91874E-001	1.06239E-008	-3.67498E-008	4.73737E-008	-2.17000E-001	3.69373E-004	6	..........a	-327.68
	80	8.1	-1.64675E-001	-2.14885E-001	-1.89780E-001	1.08553E-008	-3.61757E-008	4.70310E-008	-2.15000E-001	3.70039E-004	6	..........a	-327.68
	81	8.2	-1.62755E-001	-2.12791E-001	-1.87773E-001	1.10763E-008	-3.56026E-008	4.66789E-008	-2.13000E-001	3.64873E-004	6	..........a	-327.68
	82	8.3	-1.60889E-001	-2.10822E-001	-1.85856E-001	1.15034E-008	-3.52136E-008	4.67169E-008	-2.11000E-001	3.69039E-004	6	..........a	-327.68
	83	8.4	-1.58869E-001	-2.08848E-001	-1.83859E-001	1.18244E-008	-3.44948E-008	4.63192E-008	-2.09000E-001	3.76206E-004	6	..........a	-327.68
	84	8.5	-1.56737E-001	-2.06867E-001	-1.81802E-001	1.21645E-008	-3.41204E-008	4.62849E-008	-2.07000E-001	3.82373E-004	6	..........a	-327.68
	85	8.6	-1.54770E-001	-2.04805E-001	-1.79788E-001	1.28456E-008	-3.36700E-008	4.65156E-008	-2.05000E-001	3.60539E-004	6	..........a	-327.68
	86	8.7	-1.52854E-001	-2.02796E-001	-1.77825E-001	1.27779E-008	-3.31223E-008	4.59002E-008	-2.03000E-001	3.63373E-004	6	..........a	-327.68
	87	8.8	-1.50873E-001	-2.00855E-001	-1.75864E-001	1.30702E-008	-3.27089E-008	4.57792E-008	-2.01000E-001	3.66206E-004	6	..........a	-327.68
	88	8.9	-1.48790E-001	-1.98890E-001	-1.73840E-001	1.36707E-008	-3.23655E-008	4.60362E-008	-1.99000E-001	3.75206E-004	6	..........a	-327.68
	89	9	-1.46821E-001	-1.96854E-001	-1.71838E-001	1.38000E-008	-3.20238E-008	4.58238E-008	-1.97000E-001	3.77373E-004	6	..........a	-327.68
	90	9.1	-1.44859E-001	-1.94855E-001	-1.69857E-001	1.40827E-008	-3.16161E-008	4.56988E-008	-1.95000E-001	3.60206E-004	6	..........a	-327.68
	91	9.2	-1.42893E-001	-1.92882E-001	-1.67888E-001	1.43741E-008	-3.11761E-008	4.55501E-008	-1.93000E-001	3.59373E-004	6	..........a	-327.68
	92	9.3	-1.40871E-001	-1.90891E-001	-1.65881E-001	1.48281E-008	-3.06593E-008	4.54875E-008	-1.91000E-001	3.74539E-004	6	..........a	-327.68
	93	9.4	-1.38737E-001	-1.88732E-001	-1.63734E-001	1.50018E-008	-3.03579E-008	4.53598E-008	-1.89000E-001	3.61206E-004	6	..........a	-327.68
	94	9.5	-1.36856E-001	-1.86813E-001	-1.61834E-001	1.53472E-008	-2.98129E-008	4.51601E-008	-1.87000E-001	3.76373E-004	6	..........a	-327.68
	95	9.6	-1.34879E-001	-1.84871E-001	-1.59875E-001	1.57836E-008	-2.96449E-008	4.54284E-008	-1.85000E-001	3.61206E-004	6	..........a	-327.68
	96	9.7	-1.32731E-001	-1.82854E-001	-1.57792E-001	1.61430E-008	-2.92978E-008	4.54408E-008	-1.83000E-001	3.62539E-004	6	..........a	-327.68
	97	9.8	-1.30778E-001	-1.80782E-001	-1.55780E-001	1.63750E-008	-2.88047E-008	4.51797E-008	-1.81000E-001	3.72373E-004	6	..........a	-327.68
	98	9.9	-1.28824E-001	-1.78791E-001	-1.53807E-001	1.64827E-008	-2.84287E-008	4.49114E-008	-1.79000E-001	3.69873E-004	6	..........a	-327.68
	99	10	-1.26884E-001	-1.76851E-001	-1.51867E-001	1.67270E-008	-2.81717E-008	4.48987E-008	-1.77000E-001	3.66706E-004	6	..........a	-327.68
	100	10.1	-1.24803E-001	-1.74872E-001	-1.49838E-001	1.71201E-008	-2.77980E-008	4.49180E-008	-1.75000E-001	3.72206E-004	6	..........a	-327.68
