EXPLAIN
TAG	SQUARE_WAVE
TITLE	LABEL	Square Wave Voltammetry	Test Identifier
DATE	LABEL	8/10/2020	Date
TIME	LABEL	15:07:45	Time
NOTES	NOTES	1	Notes...
	 STD2 0.1 fg/mL 08102
PSTAT	PSTAT	REF600-24079	Potentiostat
VINIT	QUANT	-3.50000E-001	Initial E (V)
VFINAL	QUANT	-1.50000E-001	Final E (V)
STEPSIZE	QUANT	2.00000E+000	Step Size (mV)
TIMERRES	QUANT	3.33340E-005	&Timer Resolution
FREQUENCY	QUANT	1.00000E+001	Frequency (Hz)
PULSESIZE	QUANT	2.50000E+001	Pulse Size E (mV)
PULSEON	QUANT	1.00000E-001	Pulse &Time (s)
NOISEREJECT	TOGGLE	F	Noise Rejection
AREA	QUANT	2.00000E-002	Sample Area (cm^2)
IMODE	SELECTOR	1	I/E Range Mode
IRANGE	QUANT	1.00000E-003	Max Current (mA)
EQDELAY	IQUANT	10	Equil. Time (s)
IRCOMP	SELECTOR	0	IRComp
PFCOR	QUANT	5.00000E+001	PF Corr. (ohm)
CYCLES	IQUANT	101	C&ycles (#)
ELECTRODETYPE	SELECTOR	0	Electrode Type
STRIPPING	TOGGLE	F	Used for Stripping
POLARITY	TOGGLE	F	Signal Polarity
LINEFREQ	IQUANT	60	Line Frequency (Hz)
INTPERIOD	QUANT	3.3334E-005	Integration Period (s)
SEQUENCER	TOGGLE	TRUE	Run as Sequence
PSTATMODEL	IQUANT	4	Pstat Model
PSTATSECTION	LABEL	REF600-24079	Pstat Section
PSTATSERIALNO	LABEL	24079	Pstat Serial Number
CTRLMODE	IQUANT	1	Control Mode
ELECTROMETER	IQUANT	0	RE=0 or CS=1
IESTAB	IQUANT	2	I/E Stability
CASPEED	IQUANT	6	Control Amp Speed
CONVENTION	IQUANT	1	Current Convention
ICHRANGE	IQUANT	2	Ich Range
ICHRANGEMODE	TOGGLE	F	Ich Auto Range
ICHOFFSETENABLE	TOGGLE	F	Ich Offset Enable
ICHOFFSET	QUANT	0	Ich Offset (V)
ICHFILTER	IQUANT	2	Ich Filter
VCHRANGE	IQUANT	2	Vch Range
VCHRANGEMODE	TOGGLE	F	Vch Auto Range
VCHOFFSETENABLE	TOGGLE	F	Vch Offset Enable
VCHOFFSET	QUANT	0	Vch Offset (V)
VCHFILTER	IQUANT	2	Vch Filter
ACHRANGE	IQUANT	2	Ach Range
ACHOFFSETENABLE	TOGGLE	F	Ach Offset Enable
ACHOFFSET	QUANT	0	Ach Offset (V)
ACHFILTER	IQUANT	1	Ach Filter
IERANGELOWERLIMIT	IQUANT	1	I/E Range Lower Limit
IERANGEMODE	TOGGLE	F	I/E AutoRange
IERANGE	IQUANT	6	I/E Range
POSFEEDENABLE	TOGGLE	F	Positive Feedback IR Comp
POSFEEDRESISTANCE	QUANT	0	Positive Feedback Resistance (ohm)
ACHSELECT	IQUANT	0	Ach Select
SENSECABLEID	IQUANT	13	Sense Cable ID
PWRCABLEID	IQUANT	13	Power Cable ID
DCCALDATE	LABEL	6/30/2020	DC Calibration Date
ACCALDATE	LABEL	6/30/2020	AC Calibration Date
THERMOSELECT	IQUANT	1	Thermo Select
FRAMEWORKVERSION	LABEL	7.8.2	Framework Version
INSTRUMENTVERSION	LABEL	4.40	Instrument Version
CURVE	TABLE	101
	Pt	T	Vfwd	Vrev	Vstep	Ifwd	Irev	Idif	Sig	Ach	IERange	Over	Temp
	#	s	V	V	V	A	A	A	V	V	#	bits	deg C
	0	0.1	-3.24845E-001	-3.74884E-001	-3.49864E-001	-6.04534E-008	-1.14849E-007	5.43953E-008	-3.75000E-001	4.33706E-004	6	..........a	-327.68
	1	0.2	-3.22854E-001	-3.72882E-001	-3.47868E-001	-4.64513E-008	-1.08899E-007	6.24473E-008	-3.73000E-001	4.12706E-004	6	..........a	-327.68
	2	0.3	-3.20871E-001	-3.70784E-001	-3.45828E-001	-4.34196E-008	-1.06007E-007	6.25870E-008	-3.71000E-001	3.97539E-004	6	..........a	-327.68
	3	0.4	-3.18896E-001	-3.68918E-001	-3.43907E-001	-4.15937E-008	-1.04062E-007	6.24679E-008	-3.69000E-001	4.10873E-004	6	..........a	-327.68
	4	0.5	-3.16800E-001	-3.66908E-001	-3.41854E-001	-4.03362E-008	-1.02070E-007	6.17339E-008	-3.67000E-001	3.97706E-004	6	..........a	-327.68
	5	0.6	-3.14883E-001	-3.64891E-001	-3.39887E-001	-3.90134E-008	-1.00741E-007	6.17272E-008	-3.65000E-001	3.79873E-004	6	..........a	-327.68
	6	0.7	-3.12893E-001	-3.62821E-001	-3.37857E-001	-3.78366E-008	-9.91350E-008	6.12985E-008	-3.63000E-001	3.93373E-004	6	..........a	-327.68
	7	0.8	-3.10889E-001	-3.60876E-001	-3.35882E-001	-3.68358E-008	-9.77062E-008	6.08704E-008	-3.61000E-001	3.75206E-004	6	..........a	-327.68
	8	0.9	-3.08828E-001	-3.58884E-001	-3.33856E-001	-3.55479E-008	-9.60743E-008	6.05264E-008	-3.59000E-001	3.89039E-004	6	..........a	-327.68
	9	1	-3.06838E-001	-3.56869E-001	-3.31854E-001	-3.45005E-008	-9.47928E-008	6.02923E-008	-3.57000E-001	3.84873E-004	6	..........a	-327.68
	10	1.1	-3.04878E-001	-3.54830E-001	-3.29854E-001	-3.34313E-008	-9.35280E-008	6.00966E-008	-3.55000E-001	3.97039E-004	6	..........a	-327.68
	11	1.2	-3.02900E-001	-3.52889E-001	-3.27895E-001	-3.24482E-008	-9.19468E-008	5.94986E-008	-3.53000E-001	3.94873E-004	6	..........a	-327.68
	12	1.3	-3.00874E-001	-3.50881E-001	-3.25877E-001	-3.13857E-008	-9.09830E-008	5.95973E-008	-3.51000E-001	3.78373E-004	6	..........a	-327.68
	13	1.4	-2.98850E-001	-3.48871E-001	-3.23860E-001	-3.03676E-008	-8.95288E-008	5.91612E-008	-3.49000E-001	3.95706E-004	6	..........a	-327.68
	14	1.5	-2.96885E-001	-3.46866E-001	-3.21876E-001	-2.94288E-008	-8.81776E-008	5.87488E-008	-3.47000E-001	3.90539E-004	6	..........a	-327.68
	15	1.6	-2.94881E-001	-3.44879E-001	-3.19880E-001	-2.85070E-008	-8.69485E-008	5.84414E-008	-3.45000E-001	3.94206E-004	6	..........a	-327.68
	16	1.7	-2.92784E-001	-3.42922E-001	-3.17853E-001	-2.76033E-008	-8.57513E-008	5.81481E-008	-3.43000E-001	3.95873E-004	6	..........a	-327.68
	17	1.8	-2.90820E-001	-3.40894E-001	-3.15857E-001	-2.64514E-008	-8.48292E-008	5.83778E-008	-3.41000E-001	4.08539E-004	6	..........a	-327.68
	18	1.9	-2.88925E-001	-3.38852E-001	-3.13888E-001	-2.57540E-008	-8.36821E-008	5.79280E-008	-3.39000E-001	4.02206E-004	6	..........a	-327.68
	19	2	-2.86876E-001	-3.36872E-001	-3.11874E-001	-2.45362E-008	-8.24029E-008	5.78667E-008	-3.37000E-001	3.97373E-004	6	..........a	-327.68
	20	2.1	-2.84846E-001	-3.34885E-001	-3.09865E-001	-2.39048E-008	-8.13874E-008	5.74827E-008	-3.35000E-001	4.04206E-004	6	..........a	-327.68
	21	2.2	-2.82815E-001	-3.32847E-001	-3.07831E-001	-2.26460E-008	-8.04040E-008	5.77580E-008	-3.33000E-001	4.03539E-004	6	..........a	-327.68
	22	2.3	-2.80889E-001	-3.30824E-001	-3.05856E-001	-2.17465E-008	-7.93248E-008	5.75783E-008	-3.31000E-001	3.94206E-004	6	..........a	-327.68
	23	2.4	-2.78870E-001	-3.28871E-001	-3.03870E-001	-2.10328E-008	-7.84177E-008	5.73850E-008	-3.29000E-001	3.92873E-004	6	..........a	-327.68
	24	2.5	-2.76871E-001	-3.26872E-001	-3.01871E-001	-2.00020E-008	-7.73566E-008	5.73546E-008	-3.27000E-001	3.96039E-004	6	..........a	-327.68
	25	2.6	-2.74847E-001	-3.24874E-001	-2.99860E-001	-1.90395E-008	-7.64028E-008	5.73633E-008	-3.25000E-001	4.04873E-004	6	..........a	-327.68
	26	2.7	-2.72879E-001	-3.22876E-001	-2.97878E-001	-1.79674E-008	-7.57484E-008	5.77810E-008	-3.23000E-001	4.09539E-004	6	..........a	-327.68
	27	2.8	-2.70876E-001	-3.20869E-001	-2.95873E-001	-1.69626E-008	-7.47933E-008	5.78307E-008	-3.21000E-001	4.15373E-004	6	..........a	-327.68
	28	2.9	-2.68873E-001	-3.18910E-001	-2.93892E-001	-1.62765E-008	-7.38755E-008	5.75990E-008	-3.19000E-001	4.04206E-004	6	..........a	-327.68
	29	3	-2.66803E-001	-3.16863E-001	-2.91833E-001	-1.53454E-008	-7.28470E-008	5.75016E-008	-3.17000E-001	4.33206E-004	6	..........a	-327.68
	30	3.1	-2.64903E-001	-3.14895E-001	-2.89899E-001	-1.43622E-008	-7.22803E-008	5.79180E-008	-3.15000E-001	4.18539E-004	6	..........a	-327.68
	31	3.2	-2.62905E-001	-3.12904E-001	-2.87905E-001	-1.34388E-008	-7.14572E-008	5.80184E-008	-3.13000E-001	4.09539E-004	6	..........a	-327.68
	32	3.3	-2.60843E-001	-3.10884E-001	-2.85863E-001	-1.27070E-008	-7.05154E-008	5.78084E-008	-3.11000E-001	4.10039E-004	6	..........a	-327.68
	33	3.4	-2.58821E-001	-3.08873E-001	-2.83847E-001	-1.17346E-008	-7.00213E-008	5.82868E-008	-3.09000E-001	4.24706E-004	6	..........a	-327.68
	34	3.5	-2.56865E-001	-3.06834E-001	-2.81850E-001	-1.10615E-008	-6.91352E-008	5.80737E-008	-3.07000E-001	4.13039E-004	6	..........a	-327.68
	35	3.6	-2.54901E-001	-3.04894E-001	-2.79897E-001	-9.94768E-009	-6.85485E-008	5.86008E-008	-3.05000E-001	4.22039E-004	6	..........a	-327.68
	36	3.7	-2.52841E-001	-3.02893E-001	-2.77867E-001	-9.10991E-009	-6.77367E-008	5.86268E-008	-3.03000E-001	4.11706E-004	6	..........a	-327.68
	37	3.8	-2.50833E-001	-3.00880E-001	-2.75857E-001	-8.50717E-009	-6.70036E-008	5.84964E-008	-3.01000E-001	4.12873E-004	6	..........a	-327.68
	38	3.9	-2.48880E-001	-2.98863E-001	-2.73872E-001	-7.70673E-009	-6.64939E-008	5.87872E-008	-2.99000E-001	4.14539E-004	6	..........a	-327.68
	39	4	-2.46871E-001	-2.96876E-001	-2.71874E-001	-6.93630E-009	-6.59218E-008	5.89855E-008	-2.97000E-001	3.88873E-004	6	..........a	-327.68
	40	4.1	-2.44868E-001	-2.94860E-001	-2.69864E-001	-6.47291E-009	-6.51497E-008	5.86768E-008	-2.95000E-001	4.05206E-004	6	..........a	-327.68
	41	4.2	-2.42787E-001	-2.92703E-001	-2.67745E-001	-5.69614E-009	-6.44346E-008	5.87385E-008	-2.93000E-001	4.10539E-004	6	..........a	-327.68
	42	4.3	-2.40891E-001	-2.90806E-001	-2.65848E-001	-5.00005E-009	-6.38379E-008	5.88378E-008	-2.91000E-001	4.05539E-004	6	..........a	-327.68
	43	4.4	-2.38911E-001	-2.88898E-001	-2.63905E-001	-4.25429E-009	-6.30581E-008	5.88038E-008	-2.89000E-001	4.11373E-004	6	..........a	-327.68
	44	4.5	-2.36882E-001	-2.86885E-001	-2.61883E-001	-3.72589E-009	-6.23924E-008	5.86665E-008	-2.87000E-001	4.11873E-004	6	..........a	-327.68
	45	4.6	-2.34816E-001	-2.84856E-001	-2.59836E-001	-3.23583E-009	-6.15953E-008	5.83594E-008	-2.85000E-001	4.01039E-004	6	..........a	-327.68
	46	4.7	-2.32852E-001	-2.82821E-001	-2.57837E-001	-2.59608E-009	-6.11342E-008	5.85381E-008	-2.83000E-001	4.01206E-004	6	..........a	-327.68
	47	4.8	-2.30870E-001	-2.80899E-001	-2.55885E-001	-2.11669E-009	-6.04875E-008	5.83708E-008	-2.81000E-001	3.97039E-004	6	..........a	-327.68
	48	4.9	-2.28834E-001	-2.78869E-001	-2.53852E-001	-1.73464E-009	-5.97840E-008	5.80494E-008	-2.79000E-001	3.97873E-004	6	..........a	-327.68
	49	5	-2.26818E-001	-2.76871E-001	-2.51845E-001	-1.39459E-009	-5.89343E-008	5.75397E-008	-2.77000E-001	3.93206E-004	6	..........a	-327.68
	50	5.1	-2.24868E-001	-2.74855E-001	-2.49862E-001	-8.47524E-010	-5.85315E-008	5.76840E-008	-2.75000E-001	4.18206E-004	6	..........a	-327.68
	51	5.2	-2.22871E-001	-2.72865E-001	-2.47868E-001	-3.80465E-010	-5.76598E-008	5.72793E-008	-2.73000E-001	4.16373E-004	6	..........a	-327.68
	52	5.3	-2.20875E-001	-2.70848E-001	-2.45861E-001	2.23612E-010	-5.69020E-008	5.71256E-008	-2.71000E-001	3.91373E-004	6	..........a	-327.68
	53	5.4	-2.18869E-001	-2.68860E-001	-2.43864E-001	4.13969E-010	-5.60225E-008	5.64365E-008	-2.69000E-001	3.85373E-004	6	..........a	-327.68
	54	5.5	-2.16880E-001	-2.66798E-001	-2.41839E-001	7.46012E-010	-5.52815E-008	5.60275E-008	-2.67000E-001	4.06373E-004	6	..........a	-327.68
	55	5.6	-2.14909E-001	-2.64906E-001	-2.39907E-001	1.12739E-009	-5.44533E-008	5.55807E-008	-2.65000E-001	4.03373E-004	6	..........a	-327.68
	56	5.7	-2.12897E-001	-2.62869E-001	-2.37883E-001	1.56978E-009	-5.38029E-008	5.53727E-008	-2.63000E-001	4.00039E-004	6	..........a	-327.68
	57	5.8	-2.10856E-001	-2.60873E-001	-2.35865E-001	2.18186E-009	-5.28441E-008	5.50260E-008	-2.61000E-001	3.93206E-004	6	..........a	-327.68
	58	5.9	-2.08863E-001	-2.58831E-001	-2.33847E-001	2.38822E-009	-5.21024E-008	5.44906E-008	-2.59000E-001	3.95539E-004	6	..........a	-327.68
	59	6	-2.06888E-001	-2.56855E-001	-2.31872E-001	2.85061E-009	-5.11903E-008	5.40409E-008	-2.57000E-001	3.86539E-004	6	..........a	-327.68
	60	6.1	-2.04834E-001	-2.54894E-001	-2.29864E-001	3.13165E-009	-5.05832E-008	5.37148E-008	-2.55000E-001	3.69706E-004	6	..........a	-327.68
	61	6.2	-2.02817E-001	-2.52876E-001	-2.27846E-001	3.37935E-009	-4.99201E-008	5.32994E-008	-2.53000E-001	3.75206E-004	6	..........a	-327.68
	62	6.3	-2.00879E-001	-2.50854E-001	-2.25867E-001	3.52670E-009	-4.91900E-008	5.27167E-008	-2.51000E-001	3.80873E-004	6	..........a	-327.68
	63	6.4	-1.98906E-001	-2.48882E-001	-2.23894E-001	3.90008E-009	-4.84149E-008	5.23150E-008	-2.49000E-001	3.75873E-004	6	..........a	-327.68
	64	6.5	-1.96880E-001	-2.46870E-001	-2.21875E-001	4.43715E-009	-4.76795E-008	5.21166E-008	-2.47000E-001	3.85539E-004	6	..........a	-327.68
	65	6.6	-1.94855E-001	-2.44870E-001	-2.19862E-001	4.73019E-009	-4.68074E-008	5.15376E-008	-2.45000E-001	3.74539E-004	6	..........a	-327.68
	66	6.7	-1.92900E-001	-2.42787E-001	-2.17843E-001	4.94388E-009	-4.61586E-008	5.11025E-008	-2.43000E-001	3.72039E-004	6	..........a	-327.68
	67	6.8	-1.90914E-001	-2.40889E-001	-2.15901E-001	5.34593E-009	-4.54605E-008	5.08065E-008	-2.41000E-001	3.52873E-004	6	..........a	-327.68
	68	6.9	-1.88806E-001	-2.38903E-001	-2.13854E-001	5.68397E-009	-4.47404E-008	5.04244E-008	-2.39000E-001	3.87039E-004	6	..........a	-327.68
	69	7	-1.86829E-001	-2.36900E-001	-2.11864E-001	6.30605E-009	-4.41840E-008	5.04901E-008	-2.37000E-001	3.88206E-004	6	..........a	-327.68
	70	7.1	-1.84895E-001	-2.34826E-001	-2.09861E-001	6.40340E-009	-4.33296E-008	4.97330E-008	-2.35000E-001	3.65873E-004	6	..........a	-327.68
	71	7.2	-1.82878E-001	-2.32872E-001	-2.07875E-001	6.89779E-009	-4.25655E-008	4.94633E-008	-2.33000E-001	3.68539E-004	6	..........a	-327.68
	72	7.3	-1.80808E-001	-2.30873E-001	-2.05841E-001	7.21417E-009	-4.19361E-008	4.91503E-008	-2.31000E-001	3.84039E-004	6	..........a	-327.68
	73	7.4	-1.78792E-001	-2.28839E-001	-2.03815E-001	7.54288E-009	-4.14264E-008	4.89692E-008	-2.29000E-001	3.87039E-004	6	..........a	-327.68
	74	7.5	-1.76846E-001	-2.26826E-001	-2.01836E-001	7.79324E-009	-4.09250E-008	4.87182E-008	-2.27000E-001	3.73873E-004	6	..........a	-327.68
	75	7.6	-1.74894E-001	-2.24883E-001	-1.99888E-001	8.36898E-009	-4.04186E-008	4.87875E-008	-2.25000E-001	3.69873E-004	6	..........a	-327.68
	76	7.7	-1.72859E-001	-2.22885E-001	-1.97872E-001	8.45166E-009	-3.94361E-008	4.78878E-008	-2.23000E-001	3.77539E-004	6	..........a	-327.68
	77	7.8	-1.70829E-001	-2.20874E-001	-1.95851E-001	8.94239E-009	-3.90764E-008	4.80188E-008	-2.21000E-001	3.82873E-004	6	..........a	-327.68
	78	7.9	-1.68878E-001	-2.18862E-001	-1.93870E-001	9.34177E-009	-3.85100E-008	4.78518E-008	-2.19000E-001	3.68039E-004	6	..........a	-327.68
	79	8	-1.66899E-001	-2.16876E-001	-1.91887E-001	9.59247E-009	-3.77949E-008	4.73874E-008	-2.17000E-001	3.86539E-004	6	..........a	-327.68
	80	8.1	-1.64746E-001	-2.14927E-001	-1.89837E-001	9.99119E-009	-3.73732E-008	4.73644E-008	-2.15000E-001	3.66539E-004	6	..........a	-327.68
	81	8.2	-1.62794E-001	-2.12874E-001	-1.87834E-001	1.03612E-008	-3.67221E-008	4.70833E-008	-2.13000E-001	3.78539E-004	6	..........a	-327.68
	82	8.3	-1.60905E-001	-2.10863E-001	-1.85884E-001	1.07910E-008	-3.62607E-008	4.70516E-008	-2.11000E-001	3.77539E-004	6	..........a	-327.68
	83	8.4	-1.58896E-001	-2.08881E-001	-1.83889E-001	1.11667E-008	-3.57226E-008	4.68893E-008	-2.09000E-001	3.73873E-004	6	..........a	-327.68
	84	8.5	-1.56816E-001	-2.06895E-001	-1.81855E-001	1.14570E-008	-3.51216E-008	4.65786E-008	-2.07000E-001	3.73873E-004	6	..........a	-327.68
	85	8.6	-1.54808E-001	-2.04837E-001	-1.79823E-001	1.18188E-008	-3.47915E-008	4.66103E-008	-2.05000E-001	3.82373E-004	6	..........a	-327.68
	86	8.7	-1.52896E-001	-2.02828E-001	-1.77862E-001	1.20274E-008	-3.43018E-008	4.63292E-008	-2.03000E-001	3.81039E-004	6	..........a	-327.68
	87	8.8	-1.50885E-001	-2.00890E-001	-1.75887E-001	1.23428E-008	-3.37217E-008	4.60645E-008	-2.01000E-001	3.77039E-004	6	..........a	-327.68
	88	8.9	-1.48848E-001	-1.98907E-001	-1.73878E-001	1.26059E-008	-3.33990E-008	4.60048E-008	-1.99000E-001	3.67706E-004	6	..........a	-327.68
	89	9	-1.46840E-001	-1.96883E-001	-1.71861E-001	1.30399E-008	-3.28379E-008	4.58778E-008	-1.97000E-001	3.67873E-004	6	..........a	-327.68
	90	9.1	-1.44875E-001	-1.94861E-001	-1.69868E-001	1.33469E-008	-3.24209E-008	4.57678E-008	-1.95000E-001	3.70539E-004	6	..........a	-327.68
	91	9.2	-1.42900E-001	-1.92884E-001	-1.67892E-001	1.38050E-008	-3.21072E-008	4.59122E-008	-1.93000E-001	3.67039E-004	6	..........a	-327.68
	92	9.3	-1.40879E-001	-1.90913E-001	-1.65896E-001	1.39540E-008	-3.14768E-008	4.54308E-008	-1.91000E-001	3.79039E-004	6	..........a	-327.68
	93	9.4	-1.38767E-001	-1.88818E-001	-1.63793E-001	1.43794E-008	-3.11720E-008	4.55515E-008	-1.89000E-001	3.60873E-004	6	..........a	-327.68
	94	9.5	-1.36884E-001	-1.86847E-001	-1.61865E-001	1.47075E-008	-3.08697E-008	4.55771E-008	-1.87000E-001	3.95039E-004	6	..........a	-327.68
	95	9.6	-1.34908E-001	-1.84907E-001	-1.59908E-001	1.49822E-008	-3.05273E-008	4.55095E-008	-1.85000E-001	3.88206E-004	6	..........a	-327.68
	96	9.7	-1.32785E-001	-1.82881E-001	-1.57833E-001	1.52905E-008	-3.00462E-008	4.53368E-008	-1.83000E-001	3.91706E-004	6	..........a	-327.68
	97	9.8	-1.30795E-001	-1.80856E-001	-1.55825E-001	1.57276E-008	-2.98605E-008	4.55881E-008	-1.81000E-001	3.73873E-004	6	..........a	-327.68
	98	9.9	-1.28839E-001	-1.78823E-001	-1.53831E-001	1.59343E-008	-2.91798E-008	4.51141E-008	-1.79000E-001	3.71039E-004	6	..........a	-327.68
	99	10	-1.26901E-001	-1.76876E-001	-1.51889E-001	1.63703E-008	-2.90674E-008	4.54378E-008	-1.77000E-001	3.85373E-004	6	..........a	-327.68
	100	10.1	-1.24831E-001	-1.74885E-001	-1.49858E-001	1.66970E-008	-2.86101E-008	4.53071E-008	-1.75000E-001	3.75373E-004	6	..........a	-327.68
