EXPLAIN
TAG	SQUARE_WAVE
TITLE	LABEL	Square Wave Voltammetry	Test Identifier
DATE	LABEL	8/10/2020	Date
TIME	LABEL	16:56:12	Time
NOTES	NOTES	1	Notes...
	
PSTAT	PSTAT	REF600-24079	Potentiostat
VINIT	QUANT	-3.50000E-001	Initial E (V)
VFINAL	QUANT	-1.50000E-001	Final E (V)
STEPSIZE	QUANT	2.00000E+000	Step Size (mV)
TIMERRES	QUANT	3.33340E-005	&Timer Resolution
FREQUENCY	QUANT	1.00000E+002	Frequency (Hz)
PULSESIZE	QUANT	2.50000E+001	Pulse Size E (mV)
PULSEON	QUANT	1.00000E-002	Pulse &Time (s)
NOISEREJECT	TOGGLE	F	Noise Rejection
AREA	QUANT	2.00000E-002	Sample Area (cm^2)
IMODE	SELECTOR	1	I/E Range Mode
IRANGE	QUANT	1.00000E-002	Max Current (mA)
EQDELAY	IQUANT	10	Equil. Time (s)
IRCOMP	SELECTOR	0	IRComp
PFCOR	QUANT	5.00000E+001	PF Corr. (ohm)
CYCLES	IQUANT	101	C&ycles (#)
ELECTRODETYPE	SELECTOR	0	Electrode Type
STRIPPING	TOGGLE	F	Used for Stripping
POLARITY	TOGGLE	F	Signal Polarity
LINEFREQ	IQUANT	60	Line Frequency (Hz)
INTPERIOD	QUANT	3.3334E-005	Integration Period (s)
SEQUENCER	TOGGLE	TRUE	Run as Sequence
PSTATMODEL	IQUANT	4	Pstat Model
PSTATSECTION	LABEL	REF600-24079	Pstat Section
PSTATSERIALNO	LABEL	24079	Pstat Serial Number
CTRLMODE	IQUANT	1	Control Mode
ELECTROMETER	IQUANT	0	RE=0 or CS=1
IESTAB	IQUANT	2	I/E Stability
CASPEED	IQUANT	6	Control Amp Speed
CONVENTION	IQUANT	1	Current Convention
ICHRANGE	IQUANT	2	Ich Range
ICHRANGEMODE	TOGGLE	F	Ich Auto Range
ICHOFFSETENABLE	TOGGLE	F	Ich Offset Enable
ICHOFFSET	QUANT	0	Ich Offset (V)
ICHFILTER	IQUANT	2	Ich Filter
VCHRANGE	IQUANT	2	Vch Range
VCHRANGEMODE	TOGGLE	F	Vch Auto Range
VCHOFFSETENABLE	TOGGLE	F	Vch Offset Enable
VCHOFFSET	QUANT	0	Vch Offset (V)
VCHFILTER	IQUANT	2	Vch Filter
ACHRANGE	IQUANT	2	Ach Range
ACHOFFSETENABLE	TOGGLE	F	Ach Offset Enable
ACHOFFSET	QUANT	0	Ach Offset (V)
ACHFILTER	IQUANT	1	Ach Filter
IERANGELOWERLIMIT	IQUANT	1	I/E Range Lower Limit
IERANGEMODE	TOGGLE	F	I/E AutoRange
IERANGE	IQUANT	7	I/E Range
POSFEEDENABLE	TOGGLE	F	Positive Feedback IR Comp
POSFEEDRESISTANCE	QUANT	0	Positive Feedback Resistance (ohm)
ACHSELECT	IQUANT	0	Ach Select
SENSECABLEID	IQUANT	13	Sense Cable ID
PWRCABLEID	IQUANT	13	Power Cable ID
DCCALDATE	LABEL	6/30/2020	DC Calibration Date
ACCALDATE	LABEL	6/30/2020	AC Calibration Date
THERMOSELECT	IQUANT	1	Thermo Select
FRAMEWORKVERSION	LABEL	7.8.2	Framework Version
INSTRUMENTVERSION	LABEL	4.40	Instrument Version
CURVE	TABLE	101
	Pt	T	Vfwd	Vrev	Vstep	Ifwd	Irev	Idif	Sig	Ach	IERange	Over	Temp
	#	s	V	V	V	A	A	A	V	V	#	bits	deg C
	0	0.01	-3.24886E-001	-3.74508E-001	-3.49697E-001	-1.39190E-007	2.49655E-008	-1.64156E-007	-3.75000E-001	4.07706E-004	7	..........a	-327.68
	1	0.02	-3.23321E-001	-3.72528E-001	-3.47924E-001	-4.55800E-007	5.94035E-008	-5.15204E-007	-3.73000E-001	3.61039E-004	7	..........a	-327.68
	2	0.03	-3.21324E-001	-3.70528E-001	-3.45926E-001	-4.35564E-007	7.78727E-008	-5.13437E-007	-3.71000E-001	3.61039E-004	7	..........a	-327.68
	3	0.04	-3.19403E-001	-3.68554E-001	-3.43978E-001	-4.25896E-007	8.45069E-008	-5.10403E-007	-3.69000E-001	3.34373E-004	7	..........a	-327.68
	4	0.05	-3.17358E-001	-3.66503E-001	-3.41930E-001	-4.15861E-007	8.91742E-008	-5.05036E-007	-3.67000E-001	3.49373E-004	7	..........a	-327.68
	5	0.06	-3.15329E-001	-3.64506E-001	-3.39918E-001	-4.10727E-007	9.41082E-008	-5.04835E-007	-3.65000E-001	3.69373E-004	7	..........a	-327.68
	6	0.07	-3.13279E-001	-3.62548E-001	-3.37913E-001	-4.04460E-007	9.82088E-008	-5.02669E-007	-3.63000E-001	3.06039E-004	7	..........a	-327.68
	7	0.08	-3.11359E-001	-3.60539E-001	-3.35949E-001	-4.02293E-007	1.02676E-007	-5.04969E-007	-3.61000E-001	3.11039E-004	7	..........a	-327.68
	8	0.09	-3.09329E-001	-3.58466E-001	-3.33898E-001	-3.98359E-007	1.04643E-007	-5.03002E-007	-3.59000E-001	3.46039E-004	7	..........a	-327.68
	9	0.1	-3.07313E-001	-3.56469E-001	-3.31891E-001	-3.95125E-007	1.09510E-007	-5.04635E-007	-3.57000E-001	3.32706E-004	7	..........a	-327.68
	10	0.11	-3.05269E-001	-3.54514E-001	-3.29892E-001	-3.92191E-007	1.12777E-007	-5.04969E-007	-3.55000E-001	3.29373E-004	7	..........a	-327.68
	11	0.12	-3.03359E-001	-3.52536E-001	-3.27948E-001	-3.88791E-007	1.15678E-007	-5.04469E-007	-3.53000E-001	3.42706E-004	7	..........a	-327.68
	12	0.13	-3.01324E-001	-3.50516E-001	-3.25920E-001	-3.85757E-007	1.18612E-007	-5.04369E-007	-3.51000E-001	3.87706E-004	7	..........a	-327.68
	13	0.14	-2.99321E-001	-3.48513E-001	-3.23917E-001	-3.82623E-007	1.21745E-007	-5.04369E-007	-3.49000E-001	3.72706E-004	7	..........a	-327.68
	14	0.15	-2.97289E-001	-3.46516E-001	-3.21903E-001	-3.79690E-007	1.24679E-007	-5.04369E-007	-3.47000E-001	3.29373E-004	7	..........a	-327.68
	15	0.16	-2.95326E-001	-3.44566E-001	-3.19946E-001	-3.75622E-007	1.28513E-007	-5.04135E-007	-3.45000E-001	3.22706E-004	7	..........a	-327.68
	16	0.17	-2.93348E-001	-3.42433E-001	-3.17890E-001	-3.72422E-007	1.30013E-007	-5.02435E-007	-3.43000E-001	3.59373E-004	7	..........a	-327.68
	17	0.18	-2.91294E-001	-3.40511E-001	-3.15903E-001	-3.70155E-007	1.34680E-007	-5.04835E-007	-3.41000E-001	3.42706E-004	7	..........a	-327.68
	18	0.19	-2.89303E-001	-3.38523E-001	-3.13913E-001	-3.70155E-007	1.35247E-007	-5.05402E-007	-3.39000E-001	3.34373E-004	7	..........a	-327.68
	19	0.2	-2.87353E-001	-3.36498E-001	-3.11925E-001	-3.65688E-007	1.38748E-007	-5.04435E-007	-3.37000E-001	3.44373E-004	7	..........a	-327.68
	20	0.21	-2.85331E-001	-3.34458E-001	-3.09894E-001	-3.62754E-007	1.39348E-007	-5.02102E-007	-3.35000E-001	3.82706E-004	7	..........a	-327.68
	21	0.22	-2.83324E-001	-3.32489E-001	-3.07907E-001	-3.57653E-007	1.40981E-007	-4.98635E-007	-3.33000E-001	3.07706E-004	7	..........a	-327.68
	22	0.23	-2.81263E-001	-3.30513E-001	-3.05888E-001	-3.58320E-007	1.44382E-007	-5.02702E-007	-3.31000E-001	3.69373E-004	7	..........a	-327.68
	23	0.24	-2.79336E-001	-3.28536E-001	-3.03936E-001	-3.53653E-007	1.43115E-007	-4.96768E-007	-3.29000E-001	3.09373E-004	7	..........a	-327.68
	24	0.25	-2.77304E-001	-3.26478E-001	-3.01891E-001	-3.50219E-007	1.48282E-007	-4.98501E-007	-3.27000E-001	3.46039E-004	7	..........a	-327.68
	25	0.26	-2.75339E-001	-3.24473E-001	-2.99906E-001	-3.49419E-007	1.49016E-007	-4.98435E-007	-3.25000E-001	3.59373E-004	7	..........a	-327.68
	26	0.27	-2.73249E-001	-3.22531E-001	-2.97890E-001	-3.44918E-007	1.51983E-007	-4.96901E-007	-3.23000E-001	3.59373E-004	7	..........a	-327.68
	27	0.28	-2.71323E-001	-3.20521E-001	-2.95922E-001	-3.47019E-007	1.55217E-007	-5.02235E-007	-3.21000E-001	3.64373E-004	7	..........a	-327.68
	28	0.29	-2.69306E-001	-3.18413E-001	-2.93859E-001	-3.43518E-007	1.56517E-007	-5.00035E-007	-3.19000E-001	3.67706E-004	7	..........a	-327.68
	29	0.3	-2.67223E-001	-3.16489E-001	-2.91856E-001	-3.38917E-007	1.56883E-007	-4.95801E-007	-3.17000E-001	3.29373E-004	7	..........a	-327.68
	30	0.31	-2.65269E-001	-3.14573E-001	-2.89921E-001	-3.37717E-007	1.58917E-007	-4.96634E-007	-3.15000E-001	3.51039E-004	7	..........a	-327.68
	31	0.32	-2.63329E-001	-3.12521E-001	-2.87925E-001	-3.34150E-007	1.58284E-007	-4.92434E-007	-3.13000E-001	3.67706E-004	7	..........a	-327.68
	32	0.33	-2.61289E-001	-3.10484E-001	-2.85887E-001	-3.31550E-007	1.59684E-007	-4.91234E-007	-3.11000E-001	3.49373E-004	7	..........a	-327.68
	33	0.34	-2.59299E-001	-3.08496E-001	-2.83898E-001	-3.27549E-007	1.60617E-007	-4.88167E-007	-3.09000E-001	3.59373E-004	7	..........a	-327.68
	34	0.35	-2.57246E-001	-3.06571E-001	-2.81908E-001	-3.25482E-007	1.63284E-007	-4.88767E-007	-3.07000E-001	3.62706E-004	7	..........a	-327.68
	35	0.36	-2.55351E-001	-3.04568E-001	-2.79959E-001	-3.21915E-007	1.64051E-007	-4.85966E-007	-3.05000E-001	3.41039E-004	7	..........a	-327.68
	36	0.37	-2.53304E-001	-3.02498E-001	-2.77901E-001	-3.19215E-007	1.64751E-007	-4.83966E-007	-3.03000E-001	3.59373E-004	7	..........a	-327.68
	37	0.38	-2.51306E-001	-3.00493E-001	-2.75899E-001	-3.16748E-007	1.66251E-007	-4.82999E-007	-3.01000E-001	3.14373E-004	7	..........a	-327.68
	38	0.39	-2.49264E-001	-2.98531E-001	-2.73898E-001	-3.14647E-007	1.65451E-007	-4.80099E-007	-2.99000E-001	3.46039E-004	7	..........a	-327.68
	39	0.4	-2.47299E-001	-2.96543E-001	-2.71921E-001	-3.09247E-007	1.67652E-007	-4.76898E-007	-2.97000E-001	3.41039E-004	7	..........a	-327.68
	40	0.41	-2.45279E-001	-2.94516E-001	-2.69898E-001	-3.10347E-007	1.69585E-007	-4.79932E-007	-2.95000E-001	3.51039E-004	7	..........a	-327.68
	41	0.42	-2.43294E-001	-2.92466E-001	-2.67880E-001	-3.06246E-007	1.72219E-007	-4.78465E-007	-2.93000E-001	3.64373E-004	7	..........a	-327.68
	42	0.43	-2.41243E-001	-2.90541E-001	-2.65892E-001	-3.05413E-007	1.74719E-007	-4.80132E-007	-2.91000E-001	3.52706E-004	7	..........a	-327.68
	43	0.44	-2.39328E-001	-2.88559E-001	-2.63943E-001	-3.02246E-007	1.73586E-007	-4.75832E-007	-2.89000E-001	3.29373E-004	7	..........a	-327.68
	44	0.45	-2.37301E-001	-2.86456E-001	-2.61878E-001	-3.00946E-007	1.73952E-007	-4.74898E-007	-2.87000E-001	3.76039E-004	7	..........a	-327.68
	45	0.46	-2.35288E-001	-2.84446E-001	-2.59867E-001	-2.97879E-007	1.74119E-007	-4.71998E-007	-2.85000E-001	3.41039E-004	7	..........a	-327.68
	46	0.47	-2.33251E-001	-2.82518E-001	-2.57884E-001	-2.93445E-007	1.74286E-007	-4.67730E-007	-2.83000E-001	3.42706E-004	7	..........a	-327.68
	47	0.48	-2.31304E-001	-2.80541E-001	-2.55923E-001	-2.91511E-007	1.74653E-007	-4.66164E-007	-2.81000E-001	3.37706E-004	7	..........a	-327.68
	48	0.49	-2.29311E-001	-2.78513E-001	-2.53912E-001	-2.87244E-007	1.75386E-007	-4.62630E-007	-2.79000E-001	3.39373E-004	7	..........a	-327.68
	49	0.5	-2.27274E-001	-2.76511E-001	-2.51893E-001	-2.86777E-007	1.76786E-007	-4.63563E-007	-2.77000E-001	3.71039E-004	7	..........a	-327.68
	50	0.51	-2.25239E-001	-2.74546E-001	-2.49893E-001	-2.86144E-007	1.78253E-007	-4.64397E-007	-2.75000E-001	3.27706E-004	7	..........a	-327.68
	51	0.52	-2.23301E-001	-2.72523E-001	-2.47912E-001	-2.83543E-007	1.79620E-007	-4.63163E-007	-2.73000E-001	3.61039E-004	7	..........a	-327.68
	52	0.53	-2.21273E-001	-2.70554E-001	-2.45913E-001	-2.83177E-007	1.79853E-007	-4.63030E-007	-2.71000E-001	3.52706E-004	7	..........a	-327.68
	53	0.54	-2.19273E-001	-2.68488E-001	-2.43880E-001	-2.80843E-007	1.82587E-007	-4.63430E-007	-2.69000E-001	3.42706E-004	7	..........a	-327.68
	54	0.55	-2.17254E-001	-2.66556E-001	-2.41905E-001	-2.79409E-007	1.83187E-007	-4.62596E-007	-2.67000E-001	3.46039E-004	7	..........a	-327.68
	55	0.56	-2.15336E-001	-2.64596E-001	-2.39966E-001	-2.79143E-007	1.84821E-007	-4.63963E-007	-2.65000E-001	3.37706E-004	7	..........a	-327.68
	56	0.57	-2.13301E-001	-2.62494E-001	-2.37898E-001	-2.75809E-007	1.85587E-007	-4.61396E-007	-2.63000E-001	3.54373E-004	7	..........a	-327.68
	57	0.58	-2.11276E-001	-2.60509E-001	-2.35893E-001	-2.75976E-007	1.87254E-007	-4.63230E-007	-2.61000E-001	3.51039E-004	7	..........a	-327.68
	58	0.59	-2.09229E-001	-2.58529E-001	-2.33879E-001	-2.75976E-007	1.89655E-007	-4.65630E-007	-2.59000E-001	3.34373E-004	7	..........a	-327.68
	59	0.6	-2.07309E-001	-2.56541E-001	-2.31925E-001	-2.72675E-007	1.90688E-007	-4.63363E-007	-2.57000E-001	3.42706E-004	7	..........a	-327.68
	60	0.61	-2.05319E-001	-2.54484E-001	-2.29902E-001	-2.71575E-007	1.93855E-007	-4.65430E-007	-2.55000E-001	3.56039E-004	7	..........a	-327.68
	61	0.62	-2.03314E-001	-2.52496E-001	-2.27905E-001	-2.70308E-007	1.94055E-007	-4.64363E-007	-2.53000E-001	3.37706E-004	7	..........a	-327.68
	62	0.63	-2.01246E-001	-2.50526E-001	-2.25886E-001	-2.70075E-007	1.95989E-007	-4.66064E-007	-2.51000E-001	3.49373E-004	7	..........a	-327.68
	63	0.64	-1.99323E-001	-2.48543E-001	-2.23933E-001	-2.70241E-007	1.94922E-007	-4.65163E-007	-2.49000E-001	3.27706E-004	7	..........a	-327.68
	64	0.65	-1.97289E-001	-2.46504E-001	-2.21897E-001	-2.67374E-007	1.97822E-007	-4.65197E-007	-2.47000E-001	3.46039E-004	7	..........a	-327.68
	65	0.66	-1.95306E-001	-2.44541E-001	-2.19923E-001	-2.68408E-007	2.03623E-007	-4.72031E-007	-2.45000E-001	3.39373E-004	7	..........a	-327.68
	66	0.67	-1.93264E-001	-2.42523E-001	-2.17893E-001	-2.66574E-007	2.03456E-007	-4.70031E-007	-2.43000E-001	3.61039E-004	7	..........a	-327.68
	67	0.68	-1.91333E-001	-2.40554E-001	-2.15943E-001	-2.67674E-007	2.03656E-007	-4.71331E-007	-2.41000E-001	3.62706E-004	7	..........a	-327.68
	68	0.69	-1.89341E-001	-2.38519E-001	-2.13930E-001	-2.67241E-007	2.06424E-007	-4.73665E-007	-2.39000E-001	3.39373E-004	7	..........a	-327.68
	69	0.7	-1.87284E-001	-2.36504E-001	-2.11894E-001	-2.66274E-007	2.11691E-007	-4.77965E-007	-2.37000E-001	3.66039E-004	7	..........a	-327.68
	70	0.71	-1.85269E-001	-2.34541E-001	-2.09905E-001	-2.67008E-007	2.12191E-007	-4.79199E-007	-2.35000E-001	3.39373E-004	7	..........a	-327.68
	71	0.72	-1.83308E-001	-2.32541E-001	-2.07924E-001	-2.64307E-007	2.14058E-007	-4.78365E-007	-2.33000E-001	3.42706E-004	7	..........a	-327.68
	72	0.73	-1.81288E-001	-2.30473E-001	-2.05880E-001	-2.64374E-007	2.14358E-007	-4.78732E-007	-2.31000E-001	3.76039E-004	7	..........a	-327.68
	73	0.74	-1.79309E-001	-2.28474E-001	-2.03892E-001	-2.61640E-007	2.15225E-007	-4.76865E-007	-2.29000E-001	3.59373E-004	7	..........a	-327.68
	74	0.75	-1.77241E-001	-2.26548E-001	-2.01894E-001	-2.60207E-007	2.18025E-007	-4.78232E-007	-2.27000E-001	3.74373E-004	7	..........a	-327.68
	75	0.76	-1.75321E-001	-2.24543E-001	-1.99932E-001	-2.59907E-007	2.21492E-007	-4.81399E-007	-2.25000E-001	3.74373E-004	7	..........a	-327.68
	76	0.77	-1.73299E-001	-2.22523E-001	-1.97911E-001	-2.57773E-007	2.22526E-007	-4.80299E-007	-2.23000E-001	3.16039E-004	7	..........a	-327.68
	77	0.78	-1.71296E-001	-2.20491E-001	-1.95893E-001	-2.60340E-007	2.25393E-007	-4.85733E-007	-2.21000E-001	3.52706E-004	7	..........a	-327.68
	78	0.79	-1.69253E-001	-2.18529E-001	-1.93891E-001	-2.60073E-007	2.25693E-007	-4.85766E-007	-2.19000E-001	3.37706E-004	7	..........a	-327.68
	79	0.8	-1.67274E-001	-2.16573E-001	-1.91923E-001	-2.58640E-007	2.28427E-007	-4.87066E-007	-2.17000E-001	3.49373E-004	7	..........a	-327.68
	80	0.81	-1.65353E-001	-2.14446E-001	-1.89899E-001	-2.59340E-007	2.30360E-007	-4.89700E-007	-2.15000E-001	3.14373E-004	7	..........a	-327.68
	81	0.82	-1.63288E-001	-2.12529E-001	-1.87908E-001	-2.56806E-007	2.31994E-007	-4.88800E-007	-2.13000E-001	3.42706E-004	7	..........a	-327.68
	82	0.83	-1.61258E-001	-2.10539E-001	-1.85898E-001	-2.56173E-007	2.35027E-007	-4.91200E-007	-2.11000E-001	3.57706E-004	7	..........a	-327.68
	83	0.84	-1.59336E-001	-2.08516E-001	-1.83926E-001	-2.58173E-007	2.35694E-007	-4.93867E-007	-2.09000E-001	3.26039E-004	7	..........a	-327.68
	84	0.85	-1.57301E-001	-2.06478E-001	-1.81889E-001	-2.52272E-007	2.38195E-007	-4.90467E-007	-2.07000E-001	3.54373E-004	7	..........a	-327.68
	85	0.86	-1.55294E-001	-2.04488E-001	-1.79891E-001	-2.56240E-007	2.40728E-007	-4.96968E-007	-2.05000E-001	3.46039E-004	7	..........a	-327.68
	86	0.87	-1.53271E-001	-2.02516E-001	-1.77893E-001	-2.53072E-007	2.42228E-007	-4.95301E-007	-2.03000E-001	3.54373E-004	7	..........a	-327.68
	87	0.88	-1.51316E-001	-2.00518E-001	-1.75917E-001	-2.54039E-007	2.45029E-007	-4.99068E-007	-2.01000E-001	3.44373E-004	7	..........a	-327.68
	88	0.89	-1.49293E-001	-1.98511E-001	-1.73902E-001	-2.50839E-007	2.42828E-007	-4.93667E-007	-1.99000E-001	3.26039E-004	7	..........a	-327.68
	89	0.9	-1.47283E-001	-1.96473E-001	-1.71878E-001	-2.50139E-007	2.46696E-007	-4.96834E-007	-1.97000E-001	3.47706E-004	7	..........a	-327.68
	90	0.91	-1.45261E-001	-1.94518E-001	-1.69889E-001	-2.50405E-007	2.46762E-007	-4.97168E-007	-1.95000E-001	3.34373E-004	7	..........a	-327.68
	91	0.92	-1.43311E-001	-1.92494E-001	-1.67903E-001	-2.46572E-007	2.47996E-007	-4.94567E-007	-1.93000E-001	3.47706E-004	7	..........a	-327.68
	92	0.93	-1.41294E-001	-1.90461E-001	-1.65878E-001	-2.49239E-007	2.52096E-007	-5.01335E-007	-1.91000E-001	3.42706E-004	7	..........a	-327.68
	93	0.94	-1.39231E-001	-1.88471E-001	-1.63851E-001	-2.48338E-007	2.50563E-007	-4.98901E-007	-1.89000E-001	3.46039E-004	7	..........a	-327.68
	94	0.95	-1.37241E-001	-1.86549E-001	-1.61895E-001	-2.47772E-007	2.56230E-007	-5.04002E-007	-1.87000E-001	3.11039E-004	7	..........a	-327.68
	95	0.96	-1.35326E-001	-1.84524E-001	-1.59925E-001	-2.49339E-007	2.57430E-007	-5.06769E-007	-1.85000E-001	3.79373E-004	7	..........a	-327.68
	96	0.97	-1.33299E-001	-1.82423E-001	-1.57861E-001	-2.46071E-007	2.57831E-007	-5.03902E-007	-1.83000E-001	3.07706E-004	7	..........a	-327.68
	97	0.98	-1.31281E-001	-1.80453E-001	-1.55867E-001	-2.45371E-007	2.59764E-007	-5.05136E-007	-1.81000E-001	3.69373E-004	7	..........a	-327.68
	98	0.99	-1.29239E-001	-1.78508E-001	-1.53873E-001	-2.44638E-007	2.59064E-007	-5.03702E-007	-1.79000E-001	3.39373E-004	7	..........a	-327.68
	99	1	-1.27343E-001	-1.76511E-001	-1.51927E-001	-2.42571E-007	2.59264E-007	-5.01835E-007	-1.77000E-001	3.27706E-004	7	..........a	-327.68
	100	1.01	-1.25311E-001	-1.74496E-001	-1.49903E-001	-2.41838E-007	2.60998E-007	-5.02835E-007	-1.75000E-001	3.22706E-004	7	..........a	-327.68
