EXPLAIN
TAG	SQUARE_WAVE
TITLE	LABEL	Square Wave Voltammetry	Test Identifier
DATE	LABEL	8/10/2020	Date
TIME	LABEL	16:55:14	Time
NOTES	NOTES	1	Notes...
	 STD2 REAL 1 fgml 08102
PSTAT	PSTAT	REF600-24079	Potentiostat
VINIT	QUANT	-3.50000E-001	Initial E (V)
VFINAL	QUANT	-1.50000E-001	Final E (V)
STEPSIZE	QUANT	2.00000E+000	Step Size (mV)
TIMERRES	QUANT	3.33340E-005	&Timer Resolution
FREQUENCY	QUANT	1.00000E+001	Frequency (Hz)
PULSESIZE	QUANT	2.50000E+001	Pulse Size E (mV)
PULSEON	QUANT	1.00000E-001	Pulse &Time (s)
NOISEREJECT	TOGGLE	F	Noise Rejection
AREA	QUANT	2.00000E-002	Sample Area (cm^2)
IMODE	SELECTOR	1	I/E Range Mode
IRANGE	QUANT	1.00000E-003	Max Current (mA)
EQDELAY	IQUANT	10	Equil. Time (s)
IRCOMP	SELECTOR	0	IRComp
PFCOR	QUANT	5.00000E+001	PF Corr. (ohm)
CYCLES	IQUANT	101	C&ycles (#)
ELECTRODETYPE	SELECTOR	0	Electrode Type
STRIPPING	TOGGLE	F	Used for Stripping
POLARITY	TOGGLE	F	Signal Polarity
LINEFREQ	IQUANT	60	Line Frequency (Hz)
INTPERIOD	QUANT	3.3334E-005	Integration Period (s)
SEQUENCER	TOGGLE	TRUE	Run as Sequence
PSTATMODEL	IQUANT	4	Pstat Model
PSTATSECTION	LABEL	REF600-24079	Pstat Section
PSTATSERIALNO	LABEL	24079	Pstat Serial Number
CTRLMODE	IQUANT	1	Control Mode
ELECTROMETER	IQUANT	0	RE=0 or CS=1
IESTAB	IQUANT	2	I/E Stability
CASPEED	IQUANT	6	Control Amp Speed
CONVENTION	IQUANT	1	Current Convention
ICHRANGE	IQUANT	2	Ich Range
ICHRANGEMODE	TOGGLE	F	Ich Auto Range
ICHOFFSETENABLE	TOGGLE	F	Ich Offset Enable
ICHOFFSET	QUANT	0	Ich Offset (V)
ICHFILTER	IQUANT	2	Ich Filter
VCHRANGE	IQUANT	2	Vch Range
VCHRANGEMODE	TOGGLE	F	Vch Auto Range
VCHOFFSETENABLE	TOGGLE	F	Vch Offset Enable
VCHOFFSET	QUANT	0	Vch Offset (V)
VCHFILTER	IQUANT	2	Vch Filter
ACHRANGE	IQUANT	2	Ach Range
ACHOFFSETENABLE	TOGGLE	F	Ach Offset Enable
ACHOFFSET	QUANT	0	Ach Offset (V)
ACHFILTER	IQUANT	1	Ach Filter
IERANGELOWERLIMIT	IQUANT	1	I/E Range Lower Limit
IERANGEMODE	TOGGLE	F	I/E AutoRange
IERANGE	IQUANT	6	I/E Range
POSFEEDENABLE	TOGGLE	F	Positive Feedback IR Comp
POSFEEDRESISTANCE	QUANT	0	Positive Feedback Resistance (ohm)
ACHSELECT	IQUANT	0	Ach Select
SENSECABLEID	IQUANT	13	Sense Cable ID
PWRCABLEID	IQUANT	13	Power Cable ID
DCCALDATE	LABEL	6/30/2020	DC Calibration Date
ACCALDATE	LABEL	6/30/2020	AC Calibration Date
THERMOSELECT	IQUANT	1	Thermo Select
FRAMEWORKVERSION	LABEL	7.8.2	Framework Version
INSTRUMENTVERSION	LABEL	4.40	Instrument Version
CURVE	TABLE	101
	Pt	T	Vfwd	Vrev	Vstep	Ifwd	Irev	Idif	Sig	Ach	IERange	Over	Temp
	#	s	V	V	V	A	A	A	V	V	#	bits	deg C
	0	0.1	-3.24921E-001	-3.74926E-001	-3.49923E-001	-1.45583E-007	-2.39648E-007	9.40646E-008	-3.75000E-001	2.70873E-004	6	..........a	-327.68
	1	0.2	-3.22901E-001	-3.72924E-001	-3.47912E-001	-1.31405E-007	-2.31952E-007	1.00546E-007	-3.73000E-001	2.72373E-004	6	..........a	-327.68
	2	0.3	-3.20912E-001	-3.70839E-001	-3.45875E-001	-1.27388E-007	-2.27873E-007	1.00485E-007	-3.71000E-001	3.04039E-004	6	..........a	-327.68
	3	0.4	-3.18921E-001	-3.68983E-001	-3.43952E-001	-1.24604E-007	-2.24001E-007	9.93963E-008	-3.69000E-001	2.97373E-004	6	..........a	-327.68
	4	0.5	-3.16861E-001	-3.66951E-001	-3.41906E-001	-1.21757E-007	-2.20610E-007	9.88529E-008	-3.67000E-001	2.77873E-004	6	..........a	-327.68
	5	0.6	-3.14915E-001	-3.64867E-001	-3.39891E-001	-1.19434E-007	-2.17000E-007	9.75668E-008	-3.65000E-001	2.91873E-004	6	..........a	-327.68
	6	0.7	-3.12929E-001	-3.62861E-001	-3.37895E-001	-1.16991E-007	-2.13838E-007	9.68467E-008	-3.63000E-001	2.99206E-004	6	..........a	-327.68
	7	0.8	-3.10926E-001	-3.60933E-001	-3.35929E-001	-1.14569E-007	-2.10493E-007	9.59235E-008	-3.61000E-001	2.83706E-004	6	..........a	-327.68
	8	0.9	-3.08898E-001	-3.58936E-001	-3.33917E-001	-1.12171E-007	-2.07137E-007	9.49661E-008	-3.59000E-001	2.84873E-004	6	..........a	-327.68
	9	1	-3.06873E-001	-3.56894E-001	-3.31884E-001	-1.09853E-007	-2.04291E-007	9.44383E-008	-3.57000E-001	2.99373E-004	6	..........a	-327.68
	10	1.1	-3.04933E-001	-3.54876E-001	-3.29905E-001	-1.07540E-007	-2.01143E-007	9.36022E-008	-3.55000E-001	2.86039E-004	6	..........a	-327.68
	11	1.2	-3.02924E-001	-3.52941E-001	-3.27932E-001	-1.05125E-007	-1.98129E-007	9.30032E-008	-3.53000E-001	2.78706E-004	6	..........a	-327.68
	12	1.3	-3.00924E-001	-3.50920E-001	-3.25922E-001	-1.02934E-007	-1.95303E-007	9.23684E-008	-3.51000E-001	2.89706E-004	6	..........a	-327.68
	13	1.4	-2.98891E-001	-3.48901E-001	-3.23896E-001	-1.00868E-007	-1.92140E-007	9.12719E-008	-3.49000E-001	2.89539E-004	6	..........a	-327.68
	14	1.5	-2.96927E-001	-3.46902E-001	-3.21915E-001	-9.86450E-008	-1.89364E-007	9.07185E-008	-3.47000E-001	2.79206E-004	6	..........a	-327.68
	15	1.6	-2.94909E-001	-3.44968E-001	-3.19939E-001	-9.63050E-008	-1.86415E-007	9.01104E-008	-3.45000E-001	2.74206E-004	6	..........a	-327.68
	16	1.7	-2.92739E-001	-3.42956E-001	-3.17848E-001	-9.40611E-008	-1.83616E-007	8.95547E-008	-3.43000E-001	3.00206E-004	6	..........a	-327.68
	17	1.8	-2.90836E-001	-3.40921E-001	-3.15879E-001	-9.18828E-008	-1.80816E-007	8.89337E-008	-3.41000E-001	2.96039E-004	6	..........a	-327.68
	18	1.9	-2.88952E-001	-3.38874E-001	-3.13913E-001	-8.97705E-008	-1.77983E-007	8.82122E-008	-3.39000E-001	2.79873E-004	6	..........a	-327.68
	19	2	-2.86943E-001	-3.36946E-001	-3.11944E-001	-8.76646E-008	-1.75580E-007	8.79159E-008	-3.37000E-001	2.92373E-004	6	..........a	-327.68
	20	2.1	-2.84872E-001	-3.34921E-001	-3.09896E-001	-8.53629E-008	-1.72940E-007	8.75771E-008	-3.35000E-001	2.88373E-004	6	..........a	-327.68
	21	2.2	-2.82868E-001	-3.32908E-001	-3.07888E-001	-8.33874E-008	-1.70280E-007	8.68927E-008	-3.33000E-001	2.82873E-004	6	..........a	-327.68
	22	2.3	-2.80958E-001	-3.30857E-001	-3.05908E-001	-8.11877E-008	-1.67624E-007	8.64363E-008	-3.31000E-001	2.88706E-004	6	..........a	-327.68
	23	2.4	-2.78913E-001	-3.28925E-001	-3.03919E-001	-7.90391E-008	-1.65424E-007	8.63850E-008	-3.29000E-001	3.04373E-004	6	..........a	-327.68
	24	2.5	-2.76918E-001	-3.26921E-001	-3.01920E-001	-7.70332E-008	-1.62703E-007	8.56696E-008	-3.27000E-001	2.88706E-004	6	..........a	-327.68
	25	2.6	-2.74896E-001	-3.24922E-001	-2.99909E-001	-7.50676E-008	-1.60299E-007	8.52312E-008	-3.25000E-001	2.82539E-004	6	..........a	-327.68
	26	2.7	-2.72924E-001	-3.22891E-001	-2.97908E-001	-7.29507E-008	-1.58087E-007	8.51365E-008	-3.23000E-001	2.98206E-004	6	..........a	-327.68
	27	2.8	-2.70880E-001	-3.20912E-001	-2.95896E-001	-7.11105E-008	-1.55693E-007	8.45824E-008	-3.21000E-001	3.14706E-004	6	..........a	-327.68
	28	2.9	-2.68911E-001	-3.18941E-001	-2.93926E-001	-6.90069E-008	-1.53570E-007	8.45634E-008	-3.19000E-001	2.82873E-004	6	..........a	-327.68
	29	3	-2.66827E-001	-3.16864E-001	-2.91845E-001	-6.70500E-008	-1.51339E-007	8.42887E-008	-3.17000E-001	2.86539E-004	6	..........a	-327.68
	30	3.1	-2.64950E-001	-3.14916E-001	-2.89933E-001	-6.51407E-008	-1.49136E-007	8.39957E-008	-3.15000E-001	3.08206E-004	6	..........a	-327.68
	31	3.2	-2.62901E-001	-3.12940E-001	-2.87920E-001	-6.31131E-008	-1.47041E-007	8.39283E-008	-3.13000E-001	2.90706E-004	6	..........a	-327.68
	32	3.3	-2.60860E-001	-3.10923E-001	-2.85892E-001	-6.12099E-008	-1.45031E-007	8.38213E-008	-3.11000E-001	2.80706E-004	6	..........a	-327.68
	33	3.4	-2.58855E-001	-3.08806E-001	-2.83831E-001	-5.93233E-008	-1.43061E-007	8.37376E-008	-3.09000E-001	2.92539E-004	6	..........a	-327.68
	34	3.5	-2.56906E-001	-3.06874E-001	-2.81890E-001	-5.76014E-008	-1.40868E-007	8.32666E-008	-3.07000E-001	2.94539E-004	6	..........a	-327.68
	35	3.6	-2.54920E-001	-3.04941E-001	-2.79931E-001	-5.56675E-008	-1.39103E-007	8.34359E-008	-3.05000E-001	2.81539E-004	6	..........a	-327.68
	36	3.7	-2.52929E-001	-3.02936E-001	-2.77932E-001	-5.40283E-008	-1.36870E-007	8.28419E-008	-3.03000E-001	2.80539E-004	6	..........a	-327.68
	37	3.8	-2.50882E-001	-3.00929E-001	-2.75905E-001	-5.22337E-008	-1.35068E-007	8.28345E-008	-3.01000E-001	2.86373E-004	6	..........a	-327.68
	38	3.9	-2.48921E-001	-2.98909E-001	-2.73915E-001	-5.04875E-008	-1.32986E-007	8.24982E-008	-2.99000E-001	2.83706E-004	6	..........a	-327.68
	39	4	-2.46905E-001	-2.96938E-001	-2.71921E-001	-4.89036E-008	-1.31297E-007	8.23935E-008	-2.97000E-001	2.77039E-004	6	..........a	-327.68
	40	4.1	-2.44910E-001	-2.94894E-001	-2.69902E-001	-4.72891E-008	-1.29328E-007	8.20388E-008	-2.95000E-001	3.02539E-004	6	..........a	-327.68
	41	4.2	-2.42831E-001	-2.92785E-001	-2.67808E-001	-4.57832E-008	-1.27603E-007	8.18197E-008	-2.93000E-001	3.06873E-004	6	..........a	-327.68
	42	4.3	-2.40965E-001	-2.90863E-001	-2.65914E-001	-4.43914E-008	-1.25744E-007	8.13527E-008	-2.91000E-001	2.77539E-004	6	..........a	-327.68
	43	4.4	-2.38946E-001	-2.88960E-001	-2.63953E-001	-4.28242E-008	-1.24114E-007	8.12893E-008	-2.89000E-001	2.86539E-004	6	..........a	-327.68
	44	4.5	-2.36875E-001	-2.86922E-001	-2.61898E-001	-4.16517E-008	-1.22248E-007	8.05966E-008	-2.87000E-001	3.02706E-004	6	..........a	-327.68
	45	4.6	-2.34857E-001	-2.84924E-001	-2.59890E-001	-4.00662E-008	-1.20493E-007	8.04266E-008	-2.85000E-001	2.88373E-004	6	..........a	-327.68
	46	4.7	-2.32911E-001	-2.82872E-001	-2.57892E-001	-3.87647E-008	-1.18690E-007	7.99255E-008	-2.83000E-001	2.84039E-004	6	..........a	-327.68
	47	4.8	-2.30917E-001	-2.80978E-001	-2.55948E-001	-3.72362E-008	-1.16940E-007	7.97035E-008	-2.81000E-001	2.92039E-004	6	..........a	-327.68
	48	4.9	-2.28808E-001	-2.78922E-001	-2.53865E-001	-3.56936E-008	-1.15319E-007	7.96255E-008	-2.79000E-001	3.10206E-004	6	..........a	-327.68
	49	5	-2.26864E-001	-2.76936E-001	-2.51900E-001	-3.46255E-008	-1.13343E-007	7.87170E-008	-2.77000E-001	2.76039E-004	6	..........a	-327.68
	50	5.1	-2.24914E-001	-2.74894E-001	-2.49904E-001	-3.33353E-008	-1.11702E-007	7.83663E-008	-2.75000E-001	2.86873E-004	6	..........a	-327.68
	51	5.2	-2.22905E-001	-2.72914E-001	-2.47909E-001	-3.20478E-008	-1.09934E-007	7.78862E-008	-2.73000E-001	3.06706E-004	6	..........a	-327.68
	52	5.3	-2.20904E-001	-2.70899E-001	-2.45902E-001	-3.07407E-008	-1.08222E-007	7.74815E-008	-2.71000E-001	2.91039E-004	6	..........a	-327.68
	53	5.4	-2.18891E-001	-2.68915E-001	-2.43903E-001	-2.97062E-008	-1.06526E-007	7.68194E-008	-2.69000E-001	2.86539E-004	6	..........a	-327.68
	54	5.5	-2.16955E-001	-2.66832E-001	-2.41893E-001	-2.83424E-008	-1.04671E-007	7.63287E-008	-2.67000E-001	2.90539E-004	6	..........a	-327.68
	55	5.6	-2.14951E-001	-2.64954E-001	-2.39952E-001	-2.72912E-008	-1.02856E-007	7.55649E-008	-2.65000E-001	3.05706E-004	6	..........a	-327.68
	56	5.7	-2.12912E-001	-2.62935E-001	-2.37924E-001	-2.60147E-008	-1.01336E-007	7.53216E-008	-2.63000E-001	2.85039E-004	6	..........a	-327.68
	57	5.8	-2.10892E-001	-2.60898E-001	-2.35895E-001	-2.51309E-008	-9.97071E-008	7.45761E-008	-2.61000E-001	2.85206E-004	6	..........a	-327.68
	58	5.9	-2.08910E-001	-2.58852E-001	-2.33881E-001	-2.39031E-008	-9.79985E-008	7.40954E-008	-2.59000E-001	3.02039E-004	6	..........a	-327.68
	59	6	-2.06915E-001	-2.56931E-001	-2.31923E-001	-2.29130E-008	-9.62593E-008	7.33463E-008	-2.57000E-001	2.90039E-004	6	..........a	-327.68
	60	6.1	-2.04889E-001	-2.54941E-001	-2.29915E-001	-2.15695E-008	-9.46941E-008	7.31246E-008	-2.55000E-001	2.77039E-004	6	..........a	-327.68
	61	6.2	-2.02864E-001	-2.52895E-001	-2.27880E-001	-2.08364E-008	-9.30059E-008	7.21695E-008	-2.53000E-001	2.93539E-004	6	..........a	-327.68
	62	6.3	-2.00922E-001	-2.50871E-001	-2.25896E-001	-1.97576E-008	-9.14801E-008	7.17225E-008	-2.51000E-001	2.95206E-004	6	..........a	-327.68
	63	6.4	-1.98920E-001	-2.48923E-001	-2.23922E-001	-1.85901E-008	-8.96722E-008	7.10820E-008	-2.49000E-001	2.78873E-004	6	..........a	-327.68
	64	6.5	-1.96911E-001	-2.46916E-001	-2.21914E-001	-1.75170E-008	-8.81630E-008	7.06460E-008	-2.47000E-001	2.78039E-004	6	..........a	-327.68
	65	6.6	-1.94880E-001	-2.44912E-001	-2.19896E-001	-1.66495E-008	-8.65728E-008	6.99232E-008	-2.45000E-001	2.99039E-004	6	..........a	-327.68
	66	6.7	-1.92902E-001	-2.42841E-001	-2.17872E-001	-1.57051E-008	-8.47829E-008	6.90778E-008	-2.43000E-001	2.84373E-004	6	..........a	-327.68
	67	6.8	-1.90940E-001	-2.40954E-001	-2.15947E-001	-1.46576E-008	-8.37241E-008	6.90665E-008	-2.41000E-001	2.81206E-004	6	..........a	-327.68
	68	6.9	-1.88779E-001	-2.38953E-001	-2.13866E-001	-1.36385E-008	-8.21015E-008	6.84630E-008	-2.39000E-001	3.05373E-004	6	..........a	-327.68
	69	7	-1.86868E-001	-2.36909E-001	-2.11888E-001	-1.26594E-008	-8.06403E-008	6.79810E-008	-2.37000E-001	2.95039E-004	6	..........a	-327.68
	70	7.1	-1.84928E-001	-2.34874E-001	-2.09901E-001	-1.16766E-008	-7.90461E-008	6.73696E-008	-2.35000E-001	2.77539E-004	6	..........a	-327.68
	71	7.2	-1.82915E-001	-2.32915E-001	-2.07915E-001	-1.08688E-008	-7.76463E-008	6.67775E-008	-2.33000E-001	3.04373E-004	6	..........a	-327.68
	72	7.3	-1.80806E-001	-2.30910E-001	-2.05858E-001	-9.87601E-009	-7.63368E-008	6.64608E-008	-2.31000E-001	2.89706E-004	6	..........a	-327.68
	73	7.4	-1.78845E-001	-2.28896E-001	-2.03871E-001	-9.01823E-009	-7.47996E-008	6.57814E-008	-2.29000E-001	2.90206E-004	6	..........a	-327.68
	74	7.5	-1.76917E-001	-2.26869E-001	-2.01893E-001	-7.91442E-009	-7.36031E-008	6.56887E-008	-2.27000E-001	2.92039E-004	6	..........a	-327.68
	75	7.6	-1.74907E-001	-2.24918E-001	-1.99913E-001	-7.20800E-009	-7.22106E-008	6.50026E-008	-2.25000E-001	3.05873E-004	6	..........a	-327.68
	76	7.7	-1.72892E-001	-2.22895E-001	-1.97893E-001	-6.27121E-009	-7.07641E-008	6.44929E-008	-2.23000E-001	3.12706E-004	6	..........a	-327.68
	77	7.8	-1.70872E-001	-2.20910E-001	-1.95891E-001	-5.43344E-009	-6.96419E-008	6.42085E-008	-2.21000E-001	2.83873E-004	6	..........a	-327.68
	78	7.9	-1.68900E-001	-2.18880E-001	-1.93890E-001	-4.46132E-009	-6.82911E-008	6.38298E-008	-2.19000E-001	3.11539E-004	6	..........a	-327.68
	79	8	-1.66890E-001	-2.16955E-001	-1.91922E-001	-3.64288E-009	-6.69353E-008	6.32924E-008	-2.17000E-001	2.98039E-004	6	..........a	-327.68
	80	8.1	-1.64740E-001	-2.14943E-001	-1.89841E-001	-2.73810E-009	-6.60338E-008	6.32957E-008	-2.15000E-001	2.95539E-004	6	..........a	-327.68
	81	8.2	-1.62839E-001	-2.12896E-001	-1.87868E-001	-1.82265E-009	-6.46817E-008	6.28590E-008	-2.13000E-001	2.84873E-004	6	..........a	-327.68
	82	8.3	-1.60922E-001	-2.10886E-001	-1.85904E-001	-9.69873E-010	-6.35442E-008	6.25743E-008	-2.11000E-001	2.86206E-004	6	..........a	-327.68
	83	8.4	-1.58921E-001	-2.08928E-001	-1.83924E-001	-1.94108E-010	-6.24690E-008	6.22749E-008	-2.09000E-001	2.98039E-004	6	..........a	-327.68
	84	8.5	-1.56873E-001	-2.06905E-001	-1.81889E-001	8.52692E-010	-6.13602E-008	6.22129E-008	-2.07000E-001	2.71373E-004	6	..........a	-327.68
	85	8.6	-1.54854E-001	-2.04893E-001	-1.79873E-001	1.48344E-009	-6.02621E-008	6.17455E-008	-2.05000E-001	2.85206E-004	6	..........a	-327.68
	86	8.7	-1.52934E-001	-2.02865E-001	-1.77899E-001	2.25620E-009	-5.93570E-008	6.16132E-008	-2.03000E-001	2.84373E-004	6	..........a	-327.68
	87	8.8	-1.50914E-001	-2.00939E-001	-1.75926E-001	2.85295E-009	-5.81158E-008	6.09688E-008	-2.01000E-001	2.78373E-004	6	..........a	-327.68
	88	8.9	-1.48898E-001	-1.98900E-001	-1.73899E-001	3.65138E-009	-5.71430E-008	6.07944E-008	-1.99000E-001	2.70206E-004	6	..........a	-327.68
	89	9	-1.46871E-001	-1.96897E-001	-1.71884E-001	4.28146E-009	-5.60622E-008	6.03437E-008	-1.97000E-001	2.90206E-004	6	..........a	-327.68
	90	9.1	-1.44909E-001	-1.94895E-001	-1.69902E-001	5.07456E-009	-5.50201E-008	6.00946E-008	-1.95000E-001	2.90206E-004	6	..........a	-327.68
	91	9.2	-1.42919E-001	-1.92898E-001	-1.67908E-001	5.81199E-009	-5.39963E-008	5.98083E-008	-1.93000E-001	2.70039E-004	6	..........a	-327.68
	92	9.3	-1.40915E-001	-1.90943E-001	-1.65929E-001	6.56842E-009	-5.30202E-008	5.95886E-008	-1.91000E-001	2.81206E-004	6	..........a	-327.68
	93	9.4	-1.38799E-001	-1.88888E-001	-1.63843E-001	7.01848E-009	-5.24538E-008	5.94722E-008	-1.89000E-001	2.93873E-004	6	..........a	-327.68
	94	9.5	-1.36932E-001	-1.86874E-001	-1.61903E-001	8.01427E-009	-5.12913E-008	5.93055E-008	-1.87000E-001	2.69706E-004	6	..........a	-327.68
	95	9.6	-1.34924E-001	-1.84936E-001	-1.59930E-001	8.54100E-009	-5.05288E-008	5.90699E-008	-1.85000E-001	2.60373E-004	6	..........a	-327.68
	96	9.7	-1.32784E-001	-1.82910E-001	-1.57847E-001	9.27210E-009	-4.96037E-008	5.88758E-008	-1.83000E-001	2.81706E-004	6	..........a	-327.68
	97	9.8	-1.30820E-001	-1.80903E-001	-1.55862E-001	9.97352E-009	-4.87650E-008	5.87385E-008	-1.81000E-001	2.79539E-004	6	..........a	-327.68
	98	9.9	-1.28884E-001	-1.78862E-001	-1.53873E-001	1.05536E-008	-4.79825E-008	5.85361E-008	-1.79000E-001	2.57373E-004	6	..........a	-327.68
	99	10	-1.26949E-001	-1.76925E-001	-1.51937E-001	1.12447E-008	-4.71451E-008	5.83898E-008	-1.77000E-001	2.62539E-004	6	..........a	-327.68
	100	10.1	-1.24849E-001	-1.74915E-001	-1.49882E-001	1.19194E-008	-4.63696E-008	5.82891E-008	-1.75000E-001	2.81206E-004	6	..........a	-327.68
