EXPLAIN
TAG	SQUARE_WAVE
TITLE	LABEL	Square Wave Voltammetry	Test Identifier
DATE	LABEL	8/10/2020	Date
TIME	LABEL	18:13:13	Time
NOTES	NOTES	1	Notes...
	
PSTAT	PSTAT	REF600-24079	Potentiostat
VINIT	QUANT	-3.50000E-001	Initial E (V)
VFINAL	QUANT	-1.50000E-001	Final E (V)
STEPSIZE	QUANT	2.00000E+000	Step Size (mV)
TIMERRES	QUANT	3.33340E-005	&Timer Resolution
FREQUENCY	QUANT	2.50000E+001	Frequency (Hz)
PULSESIZE	QUANT	2.50000E+001	Pulse Size E (mV)
PULSEON	QUANT	4.00000E-002	Pulse &Time (s)
NOISEREJECT	TOGGLE	F	Noise Rejection
AREA	QUANT	2.00000E-002	Sample Area (cm^2)
IMODE	SELECTOR	1	I/E Range Mode
IRANGE	QUANT	1.00000E-003	Max Current (mA)
EQDELAY	IQUANT	10	Equil. Time (s)
IRCOMP	SELECTOR	0	IRComp
PFCOR	QUANT	5.00000E+001	PF Corr. (ohm)
CYCLES	IQUANT	101	C&ycles (#)
ELECTRODETYPE	SELECTOR	0	Electrode Type
STRIPPING	TOGGLE	F	Used for Stripping
POLARITY	TOGGLE	F	Signal Polarity
LINEFREQ	IQUANT	60	Line Frequency (Hz)
INTPERIOD	QUANT	3.3334E-005	Integration Period (s)
SEQUENCER	TOGGLE	TRUE	Run as Sequence
PSTATMODEL	IQUANT	4	Pstat Model
PSTATSECTION	LABEL	REF600-24079	Pstat Section
PSTATSERIALNO	LABEL	24079	Pstat Serial Number
CTRLMODE	IQUANT	1	Control Mode
ELECTROMETER	IQUANT	0	RE=0 or CS=1
IESTAB	IQUANT	2	I/E Stability
CASPEED	IQUANT	6	Control Amp Speed
CONVENTION	IQUANT	1	Current Convention
ICHRANGE	IQUANT	2	Ich Range
ICHRANGEMODE	TOGGLE	F	Ich Auto Range
ICHOFFSETENABLE	TOGGLE	F	Ich Offset Enable
ICHOFFSET	QUANT	0	Ich Offset (V)
ICHFILTER	IQUANT	2	Ich Filter
VCHRANGE	IQUANT	2	Vch Range
VCHRANGEMODE	TOGGLE	F	Vch Auto Range
VCHOFFSETENABLE	TOGGLE	F	Vch Offset Enable
VCHOFFSET	QUANT	0	Vch Offset (V)
VCHFILTER	IQUANT	2	Vch Filter
ACHRANGE	IQUANT	2	Ach Range
ACHOFFSETENABLE	TOGGLE	F	Ach Offset Enable
ACHOFFSET	QUANT	0	Ach Offset (V)
ACHFILTER	IQUANT	1	Ach Filter
IERANGELOWERLIMIT	IQUANT	1	I/E Range Lower Limit
IERANGEMODE	TOGGLE	F	I/E AutoRange
IERANGE	IQUANT	6	I/E Range
POSFEEDENABLE	TOGGLE	F	Positive Feedback IR Comp
POSFEEDRESISTANCE	QUANT	0	Positive Feedback Resistance (ohm)
ACHSELECT	IQUANT	0	Ach Select
SENSECABLEID	IQUANT	13	Sense Cable ID
PWRCABLEID	IQUANT	13	Power Cable ID
DCCALDATE	LABEL	6/30/2020	DC Calibration Date
ACCALDATE	LABEL	6/30/2020	AC Calibration Date
THERMOSELECT	IQUANT	1	Thermo Select
FRAMEWORKVERSION	LABEL	7.8.2	Framework Version
INSTRUMENTVERSION	LABEL	4.40	Instrument Version
CURVE	TABLE	101
	Pt	T	Vfwd	Vrev	Vstep	Ifwd	Irev	Idif	Sig	Ach	IERange	Over	Temp
	#	s	V	V	V	A	A	A	V	V	#	bits	deg C
	0	0.04	-3.24841E-001	-3.75515E-001	-3.50178E-001	-9.01717E-008	-2.64514E-007	1.74342E-007	-3.75000E-001	3.46039E-004	6	..........a	-327.68
	1	0.08	-3.22240E-001	-3.73513E-001	-3.47876E-001	-1.97050E-009	-2.49034E-007	2.47063E-007	-3.73000E-001	3.59373E-004	6	..........a	-327.68
	2	0.12	-3.20225E-001	-3.71525E-001	-3.45875E-001	5.04456E-009	-2.43864E-007	2.48908E-007	-3.71000E-001	3.65206E-004	6	..........a	-327.68
	3	0.16	-3.18142E-001	-3.69413E-001	-3.43778E-001	7.99493E-009	-2.38271E-007	2.46266E-007	-3.69000E-001	3.66873E-004	6	..........a	-327.68
	4	0.2	-3.16263E-001	-3.67518E-001	-3.41890E-001	1.24397E-008	-2.34467E-007	2.46906E-007	-3.67000E-001	3.88956E-004	6	..........a	-327.68
	5	0.24	-3.14248E-001	-3.65548E-001	-3.39898E-001	1.35173E-008	-2.31529E-007	2.45046E-007	-3.65000E-001	3.66873E-004	6	..........a	-327.68
	6	0.28	-3.12212E-001	-3.63516E-001	-3.37864E-001	1.62877E-008	-2.26720E-007	2.43008E-007	-3.63000E-001	3.78123E-004	6	..........a	-327.68
	7	0.32	-3.10170E-001	-3.61446E-001	-3.35808E-001	1.79212E-008	-2.24728E-007	2.42649E-007	-3.61000E-001	3.82706E-004	6	..........a	-327.68
	8	0.36	-3.08233E-001	-3.59510E-001	-3.33871E-001	1.97039E-008	-2.21090E-007	2.40794E-007	-3.59000E-001	3.76456E-004	6	..........a	-327.68
	9	0.4	-3.06258E-001	-3.57550E-001	-3.31904E-001	2.30602E-008	-2.18250E-007	2.41310E-007	-3.57000E-001	3.63956E-004	6	..........a	-327.68
	10	0.44	-3.04243E-001	-3.55532E-001	-3.29888E-001	2.32560E-008	-2.15864E-007	2.39120E-007	-3.55000E-001	3.58123E-004	6	..........a	-327.68
	11	0.48	-3.02189E-001	-3.53476E-001	-3.27833E-001	2.56613E-008	-2.12280E-007	2.37941E-007	-3.53000E-001	3.76039E-004	6	..........a	-327.68
	12	0.52	-3.00234E-001	-3.51523E-001	-3.25878E-001	2.76858E-008	-2.10771E-007	2.38457E-007	-3.51000E-001	3.50623E-004	6	..........a	-327.68
	13	0.56	-2.98243E-001	-3.49519E-001	-3.23881E-001	2.85017E-008	-2.06923E-007	2.35425E-007	-3.49000E-001	3.66039E-004	6	..........a	-327.68
	14	0.6	-2.96238E-001	-3.47517E-001	-3.21877E-001	3.16446E-008	-2.04333E-007	2.35978E-007	-3.47000E-001	3.72289E-004	6	..........a	-327.68
	15	0.64	-2.94179E-001	-3.45487E-001	-3.19833E-001	3.23055E-008	-2.02726E-007	2.35032E-007	-3.45000E-001	3.34373E-004	6	..........a	-327.68
	16	0.68	-2.92261E-001	-3.43517E-001	-3.17889E-001	3.46417E-008	-1.99252E-007	2.33894E-007	-3.43000E-001	3.76456E-004	6	..........a	-327.68
	17	0.72	-2.90283E-001	-3.41541E-001	-3.15912E-001	3.66069E-008	-1.97825E-007	2.34431E-007	-3.41000E-001	3.76873E-004	6	..........a	-327.68
	18	0.76	-2.88215E-001	-3.39522E-001	-3.13868E-001	3.74737E-008	-1.94529E-007	2.32003E-007	-3.39000E-001	3.66456E-004	6	..........a	-327.68
	19	0.8	-2.86178E-001	-3.37443E-001	-3.11811E-001	4.02857E-008	-1.92529E-007	2.32815E-007	-3.37000E-001	3.69373E-004	6	..........a	-327.68
	20	0.84	-2.84235E-001	-3.35501E-001	-3.09868E-001	4.09450E-008	-1.90820E-007	2.31765E-007	-3.35000E-001	3.66456E-004	6	..........a	-327.68
	21	0.88	-2.82263E-001	-3.33507E-001	-3.07885E-001	4.31377E-008	-1.87792E-007	2.30929E-007	-3.33000E-001	3.68123E-004	6	..........a	-327.68
	22	0.92	-2.80223E-001	-3.31544E-001	-3.05884E-001	4.45896E-008	-1.86693E-007	2.31283E-007	-3.31000E-001	3.54373E-004	6	..........a	-327.68
	23	0.96	-2.78182E-001	-3.29461E-001	-3.03822E-001	4.57889E-008	-1.84415E-007	2.30204E-007	-3.29000E-001	3.52289E-004	6	..........a	-327.68
	24	1	-2.76244E-001	-3.27514E-001	-3.01879E-001	4.88251E-008	-1.82472E-007	2.31297E-007	-3.27000E-001	3.62289E-004	6	..........a	-327.68
	25	1.04	-2.74246E-001	-3.25519E-001	-2.99883E-001	4.95736E-008	-1.81023E-007	2.30597E-007	-3.25000E-001	3.59373E-004	6	..........a	-327.68
	26	1.08	-2.72243E-001	-3.23510E-001	-2.97877E-001	5.24689E-008	-1.77846E-007	2.30315E-007	-3.23000E-001	3.56873E-004	6	..........a	-327.68
	27	1.12	-2.70213E-001	-3.21489E-001	-2.95851E-001	5.40416E-008	-1.77715E-007	2.31756E-007	-3.21000E-001	3.54789E-004	6	..........a	-327.68
	28	1.16	-2.68268E-001	-3.19501E-001	-2.93884E-001	5.51476E-008	-1.75356E-007	2.30503E-007	-3.19000E-001	3.47289E-004	6	..........a	-327.68
	29	1.2	-2.66292E-001	-3.17526E-001	-2.91909E-001	5.74387E-008	-1.73629E-007	2.31068E-007	-3.17000E-001	3.68123E-004	6	..........a	-327.68
	30	1.24	-2.64249E-001	-3.15526E-001	-2.89887E-001	5.82230E-008	-1.72621E-007	2.30844E-007	-3.15000E-001	3.55206E-004	6	..........a	-327.68
	31	1.28	-2.62210E-001	-3.13479E-001	-2.87845E-001	6.05900E-008	-1.69801E-007	2.30391E-007	-3.13000E-001	3.87706E-004	6	..........a	-327.68
	32	1.32	-2.60239E-001	-3.11496E-001	-2.85868E-001	6.24777E-008	-1.69363E-007	2.31840E-007	-3.11000E-001	3.60623E-004	6	..........a	-327.68
	33	1.36	-2.58259E-001	-3.09528E-001	-2.83893E-001	6.31078E-008	-1.67639E-007	2.30747E-007	-3.09000E-001	3.73123E-004	6	..........a	-327.68
	34	1.4	-2.56243E-001	-3.07519E-001	-2.81881E-001	6.56081E-008	-1.65991E-007	2.31599E-007	-3.07000E-001	3.68123E-004	6	..........a	-327.68
	35	1.44	-2.54186E-001	-3.05464E-001	-2.79825E-001	6.65516E-008	-1.65538E-007	2.32090E-007	-3.05000E-001	3.46873E-004	6	..........a	-327.68
	36	1.48	-2.52268E-001	-3.03516E-001	-2.77892E-001	6.81934E-008	-1.63110E-007	2.31304E-007	-3.03000E-001	3.61039E-004	6	..........a	-327.68
	37	1.52	-2.50254E-001	-3.01527E-001	-2.75891E-001	6.98653E-008	-1.62728E-007	2.32594E-007	-3.01000E-001	3.62289E-004	6	..........a	-327.68
	38	1.56	-2.48266E-001	-2.99513E-001	-2.73889E-001	7.09654E-008	-1.60998E-007	2.31964E-007	-2.99000E-001	3.60206E-004	6	..........a	-327.68
	39	1.6	-2.46215E-001	-2.97488E-001	-2.71851E-001	7.32416E-008	-1.59985E-007	2.33226E-007	-2.97000E-001	3.75206E-004	6	..........a	-327.68
	40	1.64	-2.44255E-001	-2.95514E-001	-2.69884E-001	7.35341E-008	-1.58947E-007	2.32481E-007	-2.95000E-001	3.56873E-004	6	..........a	-327.68
	41	1.68	-2.42291E-001	-2.93547E-001	-2.67919E-001	7.52677E-008	-1.56548E-007	2.31815E-007	-2.93000E-001	3.61039E-004	6	..........a	-327.68
	42	1.72	-2.40236E-001	-2.91515E-001	-2.65875E-001	7.59844E-008	-1.56370E-007	2.32355E-007	-2.91000E-001	3.57706E-004	6	..........a	-327.68
	43	1.76	-2.38199E-001	-2.89489E-001	-2.63844E-001	7.63903E-008	-1.54931E-007	2.31321E-007	-2.89000E-001	3.70623E-004	6	..........a	-327.68
	44	1.8	-2.36251E-001	-2.87526E-001	-2.61888E-001	7.87089E-008	-1.53471E-007	2.32180E-007	-2.87000E-001	3.68123E-004	6	..........a	-327.68
	45	1.84	-2.34259E-001	-2.85509E-001	-2.59884E-001	7.82305E-008	-1.52889E-007	2.31119E-007	-2.85000E-001	3.68956E-004	6	..........a	-327.68
	46	1.88	-2.32235E-001	-2.83501E-001	-2.57868E-001	7.97999E-008	-1.50370E-007	2.30170E-007	-2.83000E-001	3.50623E-004	6	..........a	-327.68
	47	1.92	-2.30183E-001	-2.81442E-001	-2.55813E-001	8.03575E-008	-1.50563E-007	2.30920E-007	-2.81000E-001	3.77706E-004	6	..........a	-327.68
	48	1.96	-2.28258E-001	-2.79509E-001	-2.53884E-001	8.01149E-008	-1.48561E-007	2.28676E-007	-2.79000E-001	3.62289E-004	6	..........a	-327.68
	49	2	-2.26261E-001	-2.77511E-001	-2.51886E-001	8.23011E-008	-1.47842E-007	2.30143E-007	-2.77000E-001	3.56873E-004	6	..........a	-327.68
	50	2.04	-2.24267E-001	-2.75516E-001	-2.49892E-001	8.15568E-008	-1.47110E-007	2.28667E-007	-2.75000E-001	3.58539E-004	6	..........a	-327.68
	51	2.08	-2.22208E-001	-2.73495E-001	-2.47852E-001	8.26303E-008	-1.44763E-007	2.27393E-007	-2.73000E-001	3.64789E-004	6	..........a	-327.68
	52	2.12	-2.20255E-001	-2.71514E-001	-2.45885E-001	8.31312E-008	-1.44674E-007	2.27806E-007	-2.71000E-001	3.50623E-004	6	..........a	-327.68
	53	2.16	-2.18242E-001	-2.69494E-001	-2.43868E-001	8.31345E-008	-1.42617E-007	2.25751E-007	-2.69000E-001	3.56039E-004	6	..........a	-327.68
	54	2.2	-2.16181E-001	-2.67504E-001	-2.41843E-001	8.44555E-008	-1.41203E-007	2.25659E-007	-2.67000E-001	3.68123E-004	6	..........a	-327.68
	55	2.24	-2.14174E-001	-2.65430E-001	-2.39802E-001	8.39929E-008	-1.40668E-007	2.24661E-007	-2.65000E-001	3.46039E-004	6	..........a	-327.68
	56	2.28	-2.12250E-001	-2.63505E-001	-2.37878E-001	8.45688E-008	-1.37655E-007	2.22224E-007	-2.63000E-001	3.48956E-004	6	..........a	-327.68
	57	2.32	-2.10264E-001	-2.61530E-001	-2.35897E-001	8.45063E-008	-1.37719E-007	2.22225E-007	-2.61000E-001	3.53956E-004	6	..........a	-327.68
	58	2.36	-2.08227E-001	-2.59514E-001	-2.33870E-001	8.42388E-008	-1.36007E-007	2.20246E-007	-2.59000E-001	3.36873E-004	6	..........a	-327.68
	59	2.4	-2.06188E-001	-2.57451E-001	-2.31819E-001	8.54240E-008	-1.34174E-007	2.19598E-007	-2.57000E-001	3.75206E-004	6	..........a	-327.68
	60	2.44	-2.04272E-001	-2.55512E-001	-2.29892E-001	8.46680E-008	-1.34040E-007	2.18708E-007	-2.55000E-001	3.52289E-004	6	..........a	-327.68
	61	2.48	-2.02268E-001	-2.53520E-001	-2.27894E-001	8.53298E-008	-1.31332E-007	2.16662E-007	-2.53000E-001	3.59373E-004	6	..........a	-327.68
	62	2.52	-2.00259E-001	-2.51503E-001	-2.25881E-001	8.54823E-008	-1.31015E-007	2.16498E-007	-2.51000E-001	3.58956E-004	6	..........a	-327.68
	63	2.56	-1.98223E-001	-2.49475E-001	-2.23849E-001	8.51189E-008	-1.29227E-007	2.14346E-007	-2.49000E-001	3.65623E-004	6	..........a	-327.68
	64	2.6	-1.96248E-001	-2.47501E-001	-2.21875E-001	8.65883E-008	-1.28010E-007	2.14598E-007	-2.47000E-001	3.67706E-004	6	..........a	-327.68
	65	2.64	-1.94255E-001	-2.45492E-001	-2.19873E-001	8.53506E-008	-1.27591E-007	2.12942E-007	-2.45000E-001	3.55623E-004	6	..........a	-327.68
	66	2.68	-1.92245E-001	-2.43496E-001	-2.17870E-001	8.65291E-008	-1.24929E-007	2.11459E-007	-2.43000E-001	3.71456E-004	6	..........a	-327.68
	67	2.72	-1.90138E-001	-2.41407E-001	-2.15773E-001	8.64908E-008	-1.24529E-007	2.11019E-007	-2.41000E-001	3.47289E-004	6	..........a	-327.68
	68	2.76	-1.88243E-001	-2.39513E-001	-2.13878E-001	8.62574E-008	-1.22450E-007	2.08707E-007	-2.39000E-001	3.52289E-004	6	..........a	-327.68
	69	2.8	-1.86281E-001	-2.37522E-001	-2.11901E-001	8.71517E-008	-1.21798E-007	2.08950E-007	-2.37000E-001	3.51873E-004	6	..........a	-327.68
	70	2.84	-1.84191E-001	-2.35488E-001	-2.09840E-001	8.62557E-008	-1.20652E-007	2.06908E-007	-2.35000E-001	3.58956E-004	6	..........a	-327.68
	71	2.88	-1.82161E-001	-2.33439E-001	-2.07800E-001	8.72775E-008	-1.18924E-007	2.06201E-007	-2.33000E-001	3.54373E-004	6	..........a	-327.68
	72	2.92	-1.80213E-001	-2.31486E-001	-2.05850E-001	8.78334E-008	-1.18163E-007	2.05996E-007	-2.31000E-001	3.68956E-004	6	..........a	-327.68
	73	2.96	-1.78280E-001	-2.29532E-001	-2.03906E-001	8.67541E-008	-1.16936E-007	2.03690E-007	-2.29000E-001	3.53539E-004	6	..........a	-327.68
	74	3	-1.76222E-001	-2.27513E-001	-2.01867E-001	8.86360E-008	-1.16106E-007	2.04742E-007	-2.27000E-001	3.58123E-004	6	..........a	-327.68
	75	3.04	-1.74193E-001	-2.25448E-001	-1.99821E-001	8.78959E-008	-1.15386E-007	2.03282E-007	-2.25000E-001	3.43539E-004	6	..........a	-327.68
	76	3.08	-1.72242E-001	-2.23499E-001	-1.97871E-001	8.86285E-008	-1.13413E-007	2.02042E-007	-2.23000E-001	3.63956E-004	6	..........a	-327.68
	77	3.12	-1.70246E-001	-2.21487E-001	-1.95866E-001	8.90694E-008	-1.13140E-007	2.02209E-007	-2.21000E-001	3.65206E-004	6	..........a	-327.68
	78	3.16	-1.68245E-001	-2.19479E-001	-1.93862E-001	8.89252E-008	-1.11652E-007	2.00577E-007	-2.19000E-001	3.62706E-004	6	..........a	-327.68
	79	3.2	-1.66166E-001	-2.17469E-001	-1.91817E-001	9.04763E-008	-1.10791E-007	2.01267E-007	-2.17000E-001	3.61456E-004	6	..........a	-327.68
	80	3.24	-1.64249E-001	-2.15504E-001	-1.89877E-001	8.92611E-008	-1.09991E-007	1.99252E-007	-2.15000E-001	3.58539E-004	6	..........a	-327.68
	81	3.28	-1.62262E-001	-2.13537E-001	-1.87899E-001	9.07388E-008	-1.07951E-007	1.98690E-007	-2.13000E-001	3.68123E-004	6	..........a	-327.68
	82	3.32	-1.60221E-001	-2.11503E-001	-1.85862E-001	9.10188E-008	-1.08282E-007	1.99300E-007	-2.11000E-001	3.48539E-004	6	..........a	-327.68
	83	3.36	-1.58165E-001	-2.09438E-001	-1.83802E-001	9.05046E-008	-1.06655E-007	1.97160E-007	-2.09000E-001	3.57706E-004	6	..........a	-327.68
	84	3.4	-1.56234E-001	-2.07488E-001	-1.81861E-001	9.20531E-008	-1.05996E-007	1.98049E-007	-2.07000E-001	3.53956E-004	6	..........a	-327.68
	85	3.44	-1.54244E-001	-2.05510E-001	-1.79877E-001	9.16948E-008	-1.05511E-007	1.97206E-007	-2.05000E-001	3.45623E-004	6	..........a	-327.68
	86	3.48	-1.52220E-001	-2.03511E-001	-1.77865E-001	9.23540E-008	-1.03626E-007	1.95980E-007	-2.03000E-001	3.43539E-004	6	..........a	-327.68
	87	3.52	-1.50167E-001	-2.01450E-001	-1.75808E-001	9.25649E-008	-1.03571E-007	1.96136E-007	-2.01000E-001	3.51456E-004	6	..........a	-327.68
	88	3.56	-1.48246E-001	-1.99504E-001	-1.73875E-001	9.29949E-008	-1.02575E-007	1.95570E-007	-1.99000E-001	3.53539E-004	6	..........a	-327.68
	89	3.6	-1.46242E-001	-1.97506E-001	-1.71874E-001	9.45126E-008	-1.01785E-007	1.96297E-007	-1.97000E-001	3.55623E-004	6	..........a	-327.68
	90	3.64	-1.44233E-001	-1.95502E-001	-1.69867E-001	9.38659E-008	-1.01442E-007	1.95308E-007	-1.95000E-001	3.70206E-004	6	..........a	-327.68
	91	3.68	-1.42206E-001	-1.93501E-001	-1.67854E-001	9.46276E-008	-9.97263E-008	1.94354E-007	-1.93000E-001	3.47289E-004	6	..........a	-327.68
	92	3.72	-1.40247E-001	-1.91489E-001	-1.65868E-001	9.55444E-008	-1.00151E-007	1.95696E-007	-1.91000E-001	3.52289E-004	6	..........a	-327.68
	93	3.76	-1.38275E-001	-1.89540E-001	-1.63908E-001	9.53394E-008	-9.89670E-008	1.94306E-007	-1.89000E-001	3.51456E-004	6	..........a	-327.68
	94	3.8	-1.36238E-001	-1.87506E-001	-1.61872E-001	9.66671E-008	-9.85761E-008	1.95243E-007	-1.87000E-001	3.77289E-004	6	..........a	-327.68
	95	3.84	-1.34193E-001	-1.85483E-001	-1.59838E-001	9.65404E-008	-9.84719E-008	1.95012E-007	-1.85000E-001	3.71456E-004	6	..........a	-327.68
	96	3.88	-1.32246E-001	-1.83500E-001	-1.57873E-001	9.71738E-008	-9.65900E-008	1.93764E-007	-1.83000E-001	3.66039E-004	6	..........a	-327.68
	97	3.92	-1.30250E-001	-1.81516E-001	-1.55883E-001	9.76514E-008	-9.69326E-008	1.94584E-007	-1.81000E-001	3.55623E-004	6	..........a	-327.68
	98	3.96	-1.28214E-001	-1.79491E-001	-1.53853E-001	9.80822E-008	-9.56666E-008	1.93749E-007	-1.79000E-001	3.49373E-004	6	..........a	-327.68
	99	4	-1.26161E-001	-1.77423E-001	-1.51792E-001	9.94857E-008	-9.55674E-008	1.95053E-007	-1.77000E-001	3.74373E-004	6	..........a	-327.68
	100	4.04	-1.24228E-001	-1.75502E-001	-1.49865E-001	9.95107E-008	-9.57216E-008	1.95232E-007	-1.75000E-001	3.41456E-004	6	..........a	-327.68
