EXPLAIN
TAG	SQUARE_WAVE
TITLE	LABEL	Square Wave Voltammetry	Test Identifier
DATE	LABEL	8/10/2020	Date
TIME	LABEL	15:06:44	Time
NOTES	NOTES	1	Notes...
	 STD2 0.1 fg/mL 08102
PSTAT	PSTAT	REF600-24079	Potentiostat
VINIT	QUANT	-3.50000E-001	Initial E (V)
VFINAL	QUANT	-1.50000E-001	Final E (V)
STEPSIZE	QUANT	2.00000E+000	Step Size (mV)
TIMERRES	QUANT	3.33340E-005	&Timer Resolution
FREQUENCY	QUANT	1.00000E+001	Frequency (Hz)
PULSESIZE	QUANT	2.50000E+001	Pulse Size E (mV)
PULSEON	QUANT	1.00000E-001	Pulse &Time (s)
NOISEREJECT	TOGGLE	F	Noise Rejection
AREA	QUANT	2.00000E-002	Sample Area (cm^2)
IMODE	SELECTOR	1	I/E Range Mode
IRANGE	QUANT	1.00000E-003	Max Current (mA)
EQDELAY	IQUANT	10	Equil. Time (s)
IRCOMP	SELECTOR	0	IRComp
PFCOR	QUANT	5.00000E+001	PF Corr. (ohm)
CYCLES	IQUANT	101	C&ycles (#)
ELECTRODETYPE	SELECTOR	0	Electrode Type
STRIPPING	TOGGLE	F	Used for Stripping
POLARITY	TOGGLE	F	Signal Polarity
LINEFREQ	IQUANT	60	Line Frequency (Hz)
INTPERIOD	QUANT	3.3334E-005	Integration Period (s)
SEQUENCER	TOGGLE	TRUE	Run as Sequence
PSTATMODEL	IQUANT	4	Pstat Model
PSTATSECTION	LABEL	REF600-24079	Pstat Section
PSTATSERIALNO	LABEL	24079	Pstat Serial Number
CTRLMODE	IQUANT	1	Control Mode
ELECTROMETER	IQUANT	0	RE=0 or CS=1
IESTAB	IQUANT	2	I/E Stability
CASPEED	IQUANT	6	Control Amp Speed
CONVENTION	IQUANT	1	Current Convention
ICHRANGE	IQUANT	2	Ich Range
ICHRANGEMODE	TOGGLE	F	Ich Auto Range
ICHOFFSETENABLE	TOGGLE	F	Ich Offset Enable
ICHOFFSET	QUANT	0	Ich Offset (V)
ICHFILTER	IQUANT	2	Ich Filter
VCHRANGE	IQUANT	2	Vch Range
VCHRANGEMODE	TOGGLE	F	Vch Auto Range
VCHOFFSETENABLE	TOGGLE	F	Vch Offset Enable
VCHOFFSET	QUANT	0	Vch Offset (V)
VCHFILTER	IQUANT	2	Vch Filter
ACHRANGE	IQUANT	2	Ach Range
ACHOFFSETENABLE	TOGGLE	F	Ach Offset Enable
ACHOFFSET	QUANT	0	Ach Offset (V)
ACHFILTER	IQUANT	1	Ach Filter
IERANGELOWERLIMIT	IQUANT	1	I/E Range Lower Limit
IERANGEMODE	TOGGLE	F	I/E AutoRange
IERANGE	IQUANT	6	I/E Range
POSFEEDENABLE	TOGGLE	F	Positive Feedback IR Comp
POSFEEDRESISTANCE	QUANT	0	Positive Feedback Resistance (ohm)
ACHSELECT	IQUANT	0	Ach Select
SENSECABLEID	IQUANT	13	Sense Cable ID
PWRCABLEID	IQUANT	13	Power Cable ID
DCCALDATE	LABEL	6/30/2020	DC Calibration Date
ACCALDATE	LABEL	6/30/2020	AC Calibration Date
THERMOSELECT	IQUANT	1	Thermo Select
FRAMEWORKVERSION	LABEL	7.8.2	Framework Version
INSTRUMENTVERSION	LABEL	4.40	Instrument Version
CURVE	TABLE	101
	Pt	T	Vfwd	Vrev	Vstep	Ifwd	Irev	Idif	Sig	Ach	IERange	Over	Temp
	#	s	V	V	V	A	A	A	V	V	#	bits	deg C
	0	0.1	-3.24857E-001	-3.74947E-001	-3.49902E-001	-5.83555E-008	-1.12173E-007	5.38172E-008	-3.75000E-001	4.31206E-004	6	..........a	-327.68
	1	0.2	-3.22851E-001	-3.72876E-001	-3.47864E-001	-4.43741E-008	-1.06143E-007	6.17692E-008	-3.73000E-001	4.03206E-004	6	..........a	-327.68
	2	0.3	-3.20871E-001	-3.70777E-001	-3.45824E-001	-4.13683E-008	-1.03180E-007	6.18112E-008	-3.71000E-001	3.94039E-004	6	..........a	-327.68
	3	0.4	-3.19094E-001	-3.68894E-001	-3.43994E-001	-3.92904E-008	-1.01221E-007	6.19305E-008	-3.69000E-001	3.84373E-004	6	..........a	-327.68
	4	0.5	-3.16820E-001	-3.67112E-001	-3.41966E-001	-3.79752E-008	-9.96944E-008	6.17192E-008	-3.67000E-001	3.84706E-004	6	..........a	-327.68
	5	0.6	-3.14871E-001	-3.64891E-001	-3.39881E-001	-3.67764E-008	-9.80386E-008	6.12621E-008	-3.65000E-001	3.84706E-004	6	..........a	-327.68
	6	0.7	-3.12878E-001	-3.62813E-001	-3.37845E-001	-3.55463E-008	-9.64480E-008	6.09017E-008	-3.63000E-001	3.90039E-004	6	..........a	-327.68
	7	0.8	-3.11066E-001	-3.60846E-001	-3.35956E-001	-3.45485E-008	-9.49292E-008	6.03807E-008	-3.61000E-001	3.90206E-004	6	..........a	-327.68
	8	0.9	-3.08849E-001	-3.59001E-001	-3.33925E-001	-3.34573E-008	-9.36740E-008	6.02167E-008	-3.59000E-001	3.80539E-004	6	..........a	-327.68
	9	1	-3.06831E-001	-3.56798E-001	-3.31815E-001	-3.24339E-008	-9.20335E-008	5.95996E-008	-3.57000E-001	3.75039E-004	6	..........a	-327.68
	10	1.1	-3.04878E-001	-3.54825E-001	-3.29851E-001	-3.15584E-008	-9.06846E-008	5.91262E-008	-3.55000E-001	4.06873E-004	6	..........a	-327.68
	11	1.2	-3.03057E-001	-3.52881E-001	-3.27969E-001	-3.03499E-008	-8.94741E-008	5.91242E-008	-3.53000E-001	3.89706E-004	6	..........a	-327.68
	12	1.3	-3.00870E-001	-3.50966E-001	-3.25918E-001	-2.92588E-008	-8.81806E-008	5.89218E-008	-3.51000E-001	3.79873E-004	6	..........a	-327.68
	13	1.4	-2.98849E-001	-3.48874E-001	-3.23861E-001	-2.83937E-008	-8.71472E-008	5.87535E-008	-3.49000E-001	3.75706E-004	6	..........a	-327.68
	14	1.5	-2.96883E-001	-3.46878E-001	-3.21881E-001	-2.74799E-008	-8.57010E-008	5.82211E-008	-3.47000E-001	3.81039E-004	6	..........a	-327.68
	15	1.6	-2.94938E-001	-3.44882E-001	-3.19910E-001	-2.65211E-008	-8.46332E-008	5.81121E-008	-3.45000E-001	3.92706E-004	6	..........a	-327.68
	16	1.7	-2.92855E-001	-3.43114E-001	-3.17984E-001	-2.54917E-008	-8.35000E-008	5.80084E-008	-3.43000E-001	3.93206E-004	6	..........a	-327.68
	17	1.8	-2.90814E-001	-3.41006E-001	-3.15910E-001	-2.48459E-008	-8.22875E-008	5.74416E-008	-3.41000E-001	3.96706E-004	6	..........a	-327.68
	18	1.9	-2.88915E-001	-3.38832E-001	-3.13873E-001	-2.37634E-008	-8.12001E-008	5.74366E-008	-3.39000E-001	3.96373E-004	6	..........a	-327.68
	19	2	-2.87085E-001	-3.36868E-001	-3.11976E-001	-2.28340E-008	-8.01406E-008	5.73066E-008	-3.37000E-001	3.91206E-004	6	..........a	-327.68
	20	2.1	-2.84827E-001	-3.35063E-001	-3.09945E-001	-2.19879E-008	-7.91048E-008	5.71169E-008	-3.35000E-001	3.92373E-004	6	..........a	-327.68
	21	2.2	-2.82811E-001	-3.32850E-001	-3.07830E-001	-2.09704E-008	-7.80700E-008	5.70996E-008	-3.33000E-001	3.98039E-004	6	..........a	-327.68
	22	2.3	-2.80898E-001	-3.30816E-001	-3.05857E-001	-2.00523E-008	-7.70232E-008	5.69709E-008	-3.31000E-001	4.10373E-004	6	..........a	-327.68
	23	2.4	-2.79047E-001	-3.28880E-001	-3.03964E-001	-1.92892E-008	-7.60428E-008	5.67536E-008	-3.29000E-001	4.08539E-004	6	..........a	-327.68
	24	2.5	-2.76844E-001	-3.26989E-001	-3.01917E-001	-1.82191E-008	-7.51910E-008	5.69719E-008	-3.27000E-001	4.22206E-004	6	..........a	-327.68
	25	2.6	-2.74838E-001	-3.24873E-001	-2.99855E-001	-1.72356E-008	-7.42979E-008	5.70623E-008	-3.25000E-001	4.01206E-004	6	..........a	-327.68
	26	2.7	-2.72872E-001	-3.22856E-001	-2.97864E-001	-1.64085E-008	-7.34228E-008	5.70143E-008	-3.23000E-001	4.08039E-004	6	..........a	-327.68
	27	2.8	-2.70931E-001	-3.20875E-001	-2.95903E-001	-1.54334E-008	-7.27303E-008	5.72970E-008	-3.21000E-001	3.87373E-004	6	..........a	-327.68
	28	2.9	-2.68869E-001	-3.19129E-001	-2.93999E-001	-1.43082E-008	-7.17406E-008	5.74323E-008	-3.19000E-001	3.89539E-004	6	..........a	-327.68
	29	3	-2.66801E-001	-3.16899E-001	-2.91850E-001	-1.37652E-008	-7.09945E-008	5.72293E-008	-3.17000E-001	4.21706E-004	6	..........a	-327.68
	30	3.1	-2.64886E-001	-3.14892E-001	-2.89889E-001	-1.28691E-008	-7.02147E-008	5.73456E-008	-3.15000E-001	4.10873E-004	6	..........a	-327.68
	31	3.2	-2.63114E-001	-3.12891E-001	-2.88002E-001	-1.19673E-008	-6.93442E-008	5.73770E-008	-3.13000E-001	4.08539E-004	6	..........a	-327.68
	32	3.3	-2.60753E-001	-3.11087E-001	-2.85920E-001	-1.08708E-008	-6.86845E-008	5.78137E-008	-3.11000E-001	4.04706E-004	6	..........a	-327.68
	33	3.4	-2.58821E-001	-3.08867E-001	-2.83844E-001	-1.03077E-008	-6.78884E-008	5.75807E-008	-3.09000E-001	4.19373E-004	6	..........a	-327.68
	34	3.5	-2.56850E-001	-3.06829E-001	-2.81839E-001	-9.49129E-009	-6.71986E-008	5.77073E-008	-3.07000E-001	4.34706E-004	6	..........a	-327.68
	35	3.6	-2.55101E-001	-3.04891E-001	-2.79996E-001	-8.62918E-009	-6.67609E-008	5.81317E-008	-3.05000E-001	4.16373E-004	6	..........a	-327.68
	36	3.7	-2.52855E-001	-3.03039E-001	-2.77947E-001	-7.74107E-009	-6.61305E-008	5.83894E-008	-3.03000E-001	4.19706E-004	6	..........a	-327.68
	37	3.8	-2.50834E-001	-3.00861E-001	-2.75847E-001	-7.06998E-009	-6.53567E-008	5.82867E-008	-3.01000E-001	4.25706E-004	6	..........a	-327.68
	38	3.9	-2.48867E-001	-2.98841E-001	-2.73854E-001	-6.33322E-009	-6.46060E-008	5.82727E-008	-2.99000E-001	4.11206E-004	6	..........a	-327.68
	39	4	-2.46950E-001	-2.96874E-001	-2.71912E-001	-5.67781E-009	-6.41029E-008	5.84251E-008	-2.97000E-001	3.89873E-004	6	..........a	-327.68
	40	4.1	-2.44882E-001	-2.94899E-001	-2.69890E-001	-4.99739E-009	-6.34345E-008	5.84371E-008	-2.95000E-001	4.13873E-004	6	..........a	-327.68
	41	4.2	-2.42783E-001	-2.92754E-001	-2.67769E-001	-4.06627E-009	-6.30641E-008	5.89978E-008	-2.93000E-001	4.04706E-004	6	..........a	-327.68
	42	4.3	-2.40852E-001	-2.90803E-001	-2.65827E-001	-3.67722E-009	-6.25114E-008	5.88341E-008	-2.91000E-001	4.17539E-004	6	..........a	-327.68
	43	4.4	-2.39122E-001	-2.88909E-001	-2.64015E-001	-3.07581E-009	-6.15949E-008	5.85191E-008	-2.89000E-001	3.96706E-004	6	..........a	-327.68
	44	4.5	-2.36888E-001	-2.87091E-001	-2.61989E-001	-2.74477E-009	-6.09578E-008	5.82131E-008	-2.87000E-001	4.08539E-004	6	..........a	-327.68
	45	4.6	-2.34811E-001	-2.84836E-001	-2.59824E-001	-2.00867E-009	-6.04978E-008	5.84891E-008	-2.85000E-001	3.91206E-004	6	..........a	-327.68
	46	4.7	-2.32846E-001	-2.82817E-001	-2.57832E-001	-1.51428E-009	-5.98390E-008	5.83248E-008	-2.83000E-001	4.02039E-004	6	..........a	-327.68
	47	4.8	-2.31036E-001	-2.80899E-001	-2.55968E-001	-1.07355E-009	-5.92513E-008	5.81777E-008	-2.81000E-001	4.03373E-004	6	..........a	-327.68
	48	4.9	-2.28828E-001	-2.79046E-001	-2.53937E-001	-8.56526E-010	-5.84705E-008	5.76140E-008	-2.79000E-001	3.89873E-004	6	..........a	-327.68
	49	5	-2.26822E-001	-2.76881E-001	-2.51852E-001	-1.40851E-011	-5.79128E-008	5.78987E-008	-2.77000E-001	4.09706E-004	6	..........a	-327.68
	50	5.1	-2.24882E-001	-2.74846E-001	-2.49864E-001	2.69951E-010	-5.70964E-008	5.73663E-008	-2.75000E-001	3.88373E-004	6	..........a	-327.68
	51	5.2	-2.22979E-001	-2.72860E-001	-2.47920E-001	5.80657E-010	-5.65719E-008	5.71526E-008	-2.73000E-001	3.94039E-004	6	..........a	-327.68
	52	5.3	-2.20876E-001	-2.70920E-001	-2.45898E-001	1.05705E-009	-5.55222E-008	5.65792E-008	-2.71000E-001	3.96539E-004	6	..........a	-327.68
	53	5.4	-2.18863E-001	-2.68853E-001	-2.43858E-001	1.52678E-009	-5.47617E-008	5.62885E-008	-2.69000E-001	4.05039E-004	6	..........a	-327.68
	54	5.5	-2.16859E-001	-2.66793E-001	-2.41826E-001	1.72047E-009	-5.41466E-008	5.58671E-008	-2.67000E-001	4.03706E-004	6	..........a	-327.68
	55	5.6	-2.15091E-001	-2.64868E-001	-2.39980E-001	1.98284E-009	-5.36466E-008	5.56294E-008	-2.65000E-001	3.94373E-004	6	..........a	-327.68
	56	5.7	-2.13003E-001	-2.63089E-001	-2.38046E-001	2.46190E-009	-5.25554E-008	5.50173E-008	-2.63000E-001	3.94539E-004	6	..........a	-327.68
	57	5.8	-2.10841E-001	-2.60840E-001	-2.35840E-001	2.68559E-009	-5.17560E-008	5.44416E-008	-2.61000E-001	3.91373E-004	6	..........a	-327.68
	58	5.9	-2.08855E-001	-2.58815E-001	-2.33835E-001	2.73660E-009	-5.11786E-008	5.39152E-008	-2.59000E-001	3.86873E-004	6	..........a	-327.68
	59	6	-2.07085E-001	-2.56858E-001	-2.31971E-001	3.12865E-009	-5.04395E-008	5.35682E-008	-2.57000E-001	3.80039E-004	6	..........a	-327.68
	60	6.1	-2.04814E-001	-2.55072E-001	-2.29943E-001	3.56504E-009	-4.95074E-008	5.30724E-008	-2.55000E-001	3.87206E-004	6	..........a	-327.68
	61	6.2	-2.02806E-001	-2.52859E-001	-2.27832E-001	3.99042E-009	-4.89423E-008	5.29327E-008	-2.53000E-001	3.81873E-004	6	..........a	-327.68
	62	6.3	-2.00865E-001	-2.50844E-001	-2.25854E-001	4.05643E-009	-4.82136E-008	5.22700E-008	-2.51000E-001	3.91206E-004	6	..........a	-327.68
	63	6.4	-1.99046E-001	-2.48890E-001	-2.23968E-001	4.53149E-009	-4.73741E-008	5.19056E-008	-2.49000E-001	3.82539E-004	6	..........a	-327.68
	64	6.5	-1.96871E-001	-2.46946E-001	-2.21908E-001	4.71718E-009	-4.67670E-008	5.14842E-008	-2.47000E-001	3.93706E-004	6	..........a	-327.68
	65	6.6	-1.94849E-001	-2.44877E-001	-2.19863E-001	5.20025E-009	-4.60166E-008	5.12169E-008	-2.45000E-001	3.89873E-004	6	..........a	-327.68
	66	6.7	-1.92891E-001	-2.42787E-001	-2.17839E-001	5.41394E-009	-4.54112E-008	5.08251E-008	-2.43000E-001	3.89539E-004	6	..........a	-327.68
	67	6.8	-1.91091E-001	-2.40880E-001	-2.15986E-001	5.87200E-009	-4.47128E-008	5.05848E-008	-2.41000E-001	3.89706E-004	6	..........a	-327.68
	68	6.9	-1.88817E-001	-2.39109E-001	-2.13963E-001	6.11969E-009	-4.39867E-008	5.01064E-008	-2.39000E-001	3.82706E-004	6	..........a	-327.68
	69	7	-1.86829E-001	-2.36904E-001	-2.11866E-001	6.36606E-009	-4.30399E-008	4.94060E-008	-2.37000E-001	3.94206E-004	6	..........a	-327.68
	70	7.1	-1.84896E-001	-2.34812E-001	-2.09854E-001	6.88313E-009	-4.25728E-008	4.94560E-008	-2.35000E-001	3.90373E-004	6	..........a	-327.68
	71	7.2	-1.83050E-001	-2.32864E-001	-2.07957E-001	7.22150E-009	-4.20011E-008	4.92226E-008	-2.33000E-001	3.97873E-004	6	..........a	-327.68
	72	7.3	-1.80786E-001	-2.31022E-001	-2.05904E-001	7.47153E-009	-4.13327E-008	4.88042E-008	-2.31000E-001	3.70039E-004	6	..........a	-327.68
	73	7.4	-1.78799E-001	-2.28775E-001	-2.03787E-001	7.78824E-009	-4.07233E-008	4.85115E-008	-2.29000E-001	3.78873E-004	6	..........a	-327.68
	74	7.5	-1.76842E-001	-2.26824E-001	-2.01833E-001	7.89892E-009	-4.02119E-008	4.81108E-008	-2.27000E-001	3.94206E-004	6	..........a	-327.68
	75	7.6	-1.75058E-001	-2.24878E-001	-1.99968E-001	8.57701E-009	-3.96531E-008	4.82301E-008	-2.25000E-001	3.85373E-004	6	..........a	-327.68
	76	7.7	-1.72847E-001	-2.22976E-001	-1.97912E-001	8.86804E-009	-3.91077E-008	4.79758E-008	-2.23000E-001	3.81539E-004	6	..........a	-327.68
	77	7.8	-1.70832E-001	-2.20866E-001	-1.95849E-001	9.24243E-009	-3.84156E-008	4.76581E-008	-2.21000E-001	3.72039E-004	6	..........a	-327.68
	78	7.9	-1.68871E-001	-2.18862E-001	-1.93866E-001	9.62914E-009	-3.78472E-008	4.74764E-008	-2.19000E-001	3.83206E-004	6	..........a	-327.68
	79	8	-1.66981E-001	-2.16868E-001	-1.91924E-001	9.86551E-009	-3.72188E-008	4.70843E-008	-2.17000E-001	3.82873E-004	6	..........a	-327.68
	80	8.1	-1.64822E-001	-2.15073E-001	-1.89947E-001	1.01732E-008	-3.67444E-008	4.69176E-008	-2.15000E-001	3.86873E-004	6	..........a	-327.68
	81	8.2	-1.62782E-001	-2.12981E-001	-1.87881E-001	1.04936E-008	-3.63070E-008	4.68006E-008	-2.13000E-001	3.90206E-004	6	..........a	-327.68
	82	8.3	-1.60904E-001	-2.10860E-001	-1.85882E-001	1.09200E-008	-3.54819E-008	4.64019E-008	-2.11000E-001	3.73706E-004	6	..........a	-327.68
	83	8.4	-1.59067E-001	-2.08868E-001	-1.83967E-001	1.10717E-008	-3.51349E-008	4.62065E-008	-2.09000E-001	3.72873E-004	6	..........a	-327.68
	84	8.5	-1.56782E-001	-2.07061E-001	-1.81922E-001	1.13010E-008	-3.47505E-008	4.60515E-008	-2.07000E-001	3.81039E-004	6	..........a	-327.68
	85	8.6	-1.54795E-001	-2.04839E-001	-1.79817E-001	1.16574E-008	-3.43715E-008	4.60289E-008	-2.05000E-001	3.85706E-004	6	..........a	-327.68
	86	8.7	-1.52879E-001	-2.02825E-001	-1.77852E-001	1.19914E-008	-3.36190E-008	4.56105E-008	-2.03000E-001	3.89706E-004	6	..........a	-327.68
	87	8.8	-1.51059E-001	-2.00875E-001	-1.75967E-001	1.24918E-008	-3.34027E-008	4.58945E-008	-2.01000E-001	3.83706E-004	6	..........a	-327.68
	88	8.9	-1.48839E-001	-1.99028E-001	-1.73933E-001	1.26645E-008	-3.30066E-008	4.56711E-008	-1.99000E-001	3.78539E-004	6	..........a	-327.68
	89	9	-1.46833E-001	-1.96871E-001	-1.71852E-001	1.30219E-008	-3.24525E-008	4.54745E-008	-1.97000E-001	3.69706E-004	6	..........a	-327.68
	90	9.1	-1.44864E-001	-1.94853E-001	-1.69858E-001	1.33690E-008	-3.22532E-008	4.56221E-008	-1.95000E-001	3.76039E-004	6	..........a	-327.68
	91	9.2	-1.43001E-001	-1.92878E-001	-1.67940E-001	1.36287E-008	-3.17558E-008	4.53844E-008	-1.93000E-001	3.80706E-004	6	..........a	-327.68
	92	9.3	-1.40881E-001	-1.91103E-001	-1.65992E-001	1.40764E-008	-3.12301E-008	4.53064E-008	-1.91000E-001	3.92706E-004	6	..........a	-327.68
	93	9.4	-1.38764E-001	-1.88826E-001	-1.63795E-001	1.41274E-008	-3.08283E-008	4.49557E-008	-1.89000E-001	3.77539E-004	6	..........a	-327.68
	94	9.5	-1.36876E-001	-1.86844E-001	-1.61860E-001	1.45168E-008	-3.06213E-008	4.51381E-008	-1.87000E-001	3.88039E-004	6	..........a	-327.68
	95	9.6	-1.35110E-001	-1.84887E-001	-1.59998E-001	1.47715E-008	-2.98762E-008	4.46477E-008	-1.85000E-001	3.88206E-004	6	..........a	-327.68
	96	9.7	-1.32745E-001	-1.83053E-001	-1.57899E-001	1.50725E-008	-2.95698E-008	4.46423E-008	-1.83000E-001	3.96206E-004	6	..........a	-327.68
	97	9.8	-1.30790E-001	-1.80837E-001	-1.55813E-001	1.55432E-008	-2.93488E-008	4.48920E-008	-1.81000E-001	3.82206E-004	6	..........a	-327.68
	98	9.9	-1.28814E-001	-1.78815E-001	-1.53815E-001	1.57549E-008	-2.91491E-008	4.49040E-008	-1.79000E-001	3.86373E-004	6	..........a	-327.68
	99	10	-1.27083E-001	-1.76858E-001	-1.51971E-001	1.58823E-008	-2.89378E-008	4.48200E-008	-1.77000E-001	3.82039E-004	6	..........a	-327.68
	100	10.1	-1.24815E-001	-1.75045E-001	-1.49930E-001	1.62020E-008	-2.83914E-008	4.45933E-008	-1.75000E-001	3.80206E-004	6	..........a	-327.68
