EXPLAIN
TAG	SQUARE_WAVE
TITLE	LABEL	Square Wave Voltammetry	Test Identifier
DATE	LABEL	8/25/2020	Date
TIME	LABEL	15:01:10	Time
NOTES	NOTES	1	Notes...
	
PSTAT	PSTAT	REF600-24079	Potentiostat
VINIT	QUANT	-3.50000E-001	Initial E (V)
VFINAL	QUANT	-1.50000E-001	Final E (V)
STEPSIZE	QUANT	2.00000E+000	Step Size (mV)
TIMERRES	QUANT	3.33340E-005	&Timer Resolution
FREQUENCY	QUANT	1.00000E+001	Frequency (Hz)
PULSESIZE	QUANT	2.50000E+001	Pulse Size E (mV)
PULSEON	QUANT	1.00000E-001	Pulse &Time (s)
NOISEREJECT	TOGGLE	F	Noise Rejection
AREA	QUANT	2.00000E-002	Sample Area (cm^2)
IMODE	SELECTOR	1	I/E Range Mode
IRANGE	QUANT	1.00000E-003	Max Current (mA)
EQDELAY	IQUANT	10	Equil. Time (s)
IRCOMP	SELECTOR	0	IRComp
PFCOR	QUANT	5.00000E+001	PF Corr. (ohm)
CYCLES	IQUANT	101	C&ycles (#)
ELECTRODETYPE	SELECTOR	0	Electrode Type
STRIPPING	TOGGLE	F	Used for Stripping
POLARITY	TOGGLE	F	Signal Polarity
LINEFREQ	IQUANT	60	Line Frequency (Hz)
INTPERIOD	QUANT	3.3334E-005	Integration Period (s)
SEQUENCER	TOGGLE	TRUE	Run as Sequence
PSTATMODEL	IQUANT	4	Pstat Model
PSTATSECTION	LABEL	REF600-24079	Pstat Section
PSTATSERIALNO	LABEL	24079	Pstat Serial Number
CTRLMODE	IQUANT	1	Control Mode
ELECTROMETER	IQUANT	0	RE=0 or CS=1
IESTAB	IQUANT	2	I/E Stability
CASPEED	IQUANT	6	Control Amp Speed
CONVENTION	IQUANT	1	Current Convention
ICHRANGE	IQUANT	2	Ich Range
ICHRANGEMODE	TOGGLE	F	Ich Auto Range
ICHOFFSETENABLE	TOGGLE	F	Ich Offset Enable
ICHOFFSET	QUANT	0	Ich Offset (V)
ICHFILTER	IQUANT	2	Ich Filter
VCHRANGE	IQUANT	2	Vch Range
VCHRANGEMODE	TOGGLE	F	Vch Auto Range
VCHOFFSETENABLE	TOGGLE	F	Vch Offset Enable
VCHOFFSET	QUANT	0	Vch Offset (V)
VCHFILTER	IQUANT	2	Vch Filter
ACHRANGE	IQUANT	2	Ach Range
ACHOFFSETENABLE	TOGGLE	F	Ach Offset Enable
ACHOFFSET	QUANT	0	Ach Offset (V)
ACHFILTER	IQUANT	1	Ach Filter
IERANGELOWERLIMIT	IQUANT	1	I/E Range Lower Limit
IERANGEMODE	TOGGLE	F	I/E AutoRange
IERANGE	IQUANT	6	I/E Range
POSFEEDENABLE	TOGGLE	F	Positive Feedback IR Comp
POSFEEDRESISTANCE	QUANT	0	Positive Feedback Resistance (ohm)
ACHSELECT	IQUANT	0	Ach Select
SENSECABLEID	IQUANT	13	Sense Cable ID
PWRCABLEID	IQUANT	13	Power Cable ID
DCCALDATE	LABEL	6/30/2020	DC Calibration Date
ACCALDATE	LABEL	6/30/2020	AC Calibration Date
THERMOSELECT	IQUANT	1	Thermo Select
FRAMEWORKVERSION	LABEL	7.8.2	Framework Version
INSTRUMENTVERSION	LABEL	4.40	Instrument Version
CURVE	TABLE	101
	Pt	T	Vfwd	Vrev	Vstep	Ifwd	Irev	Idif	Sig	Ach	IERange	Over	Temp
	#	s	V	V	V	A	A	A	V	V	#	bits	deg C
	0	0.1	-3.24976E-001	-3.74951E-001	-3.49963E-001	-1.21150E-008	-4.07083E-008	2.85933E-008	-3.75000E-001	3.79373E-004	6	..........a	-327.68
	1	0.2	-3.22921E-001	-3.72978E-001	-3.47949E-001	-1.72164E-009	-3.63327E-008	3.46111E-008	-3.73000E-001	3.66373E-004	6	..........a	-327.68
	2	0.3	-3.20962E-001	-3.70846E-001	-3.45904E-001	6.94338E-010	-3.47028E-008	3.53972E-008	-3.71000E-001	3.65039E-004	6	..........a	-327.68
	3	0.4	-3.18907E-001	-3.69037E-001	-3.43972E-001	1.85215E-009	-3.33277E-008	3.51798E-008	-3.69000E-001	3.61706E-004	6	..........a	-327.68
	4	0.5	-3.16963E-001	-3.66962E-001	-3.41963E-001	2.65092E-009	-3.27639E-008	3.54148E-008	-3.67000E-001	3.62039E-004	6	..........a	-327.68
	5	0.6	-3.14918E-001	-3.64978E-001	-3.39948E-001	3.34768E-009	-3.19038E-008	3.52515E-008	-3.65000E-001	3.55206E-004	6	..........a	-327.68
	6	0.7	-3.12980E-001	-3.62875E-001	-3.37927E-001	4.10877E-009	-3.13941E-008	3.55029E-008	-3.63000E-001	3.56373E-004	6	..........a	-327.68
	7	0.8	-3.10947E-001	-3.60989E-001	-3.35968E-001	4.80719E-009	-3.07563E-008	3.55635E-008	-3.61000E-001	3.67373E-004	6	..........a	-327.68
	8	0.9	-3.08970E-001	-3.58941E-001	-3.33955E-001	5.69831E-009	-3.05653E-008	3.62636E-008	-3.59000E-001	3.57706E-004	6	..........a	-327.68
	9	1	-3.06902E-001	-3.57002E-001	-3.31952E-001	6.11169E-009	-3.04666E-008	3.65783E-008	-3.57000E-001	3.64206E-004	6	..........a	-327.68
	10	1.1	-3.05011E-001	-3.54897E-001	-3.29954E-001	6.88246E-009	-2.98772E-008	3.67597E-008	-3.55000E-001	3.59873E-004	6	..........a	-327.68
	11	1.2	-3.02960E-001	-3.52995E-001	-3.27978E-001	7.56621E-009	-2.99012E-008	3.74674E-008	-3.53000E-001	3.52873E-004	6	..........a	-327.68
	12	1.3	-3.00996E-001	-3.50948E-001	-3.25972E-001	8.48900E-009	-2.94622E-008	3.79512E-008	-3.51000E-001	3.54539E-004	6	..........a	-327.68
	13	1.4	-2.98915E-001	-3.48971E-001	-3.23943E-001	9.06407E-009	-2.94582E-008	3.85222E-008	-3.49000E-001	3.66873E-004	6	..........a	-327.68
	14	1.5	-2.96985E-001	-3.46937E-001	-3.21961E-001	1.00932E-008	-2.91471E-008	3.92403E-008	-3.47000E-001	3.55373E-004	6	..........a	-327.68
	15	1.6	-2.94965E-001	-3.45045E-001	-3.20005E-001	1.10840E-008	-2.95222E-008	4.06062E-008	-3.45000E-001	3.52706E-004	6	..........a	-327.68
	16	1.7	-2.92876E-001	-3.42940E-001	-3.17908E-001	1.20505E-008	-2.93371E-008	4.13876E-008	-3.43000E-001	3.76206E-004	6	..........a	-327.68
	17	1.8	-2.90863E-001	-3.40969E-001	-3.15916E-001	1.31346E-008	-2.94465E-008	4.25811E-008	-3.41000E-001	3.60206E-004	6	..........a	-327.68
	18	1.9	-2.88995E-001	-3.38890E-001	-3.13942E-001	1.45668E-008	-2.98179E-008	4.43846E-008	-3.39000E-001	3.67706E-004	6	..........a	-327.68
	19	2	-2.86946E-001	-3.36981E-001	-3.11963E-001	1.58006E-008	-2.99512E-008	4.57518E-008	-3.37000E-001	3.60206E-004	6	..........a	-327.68
	20	2.1	-2.84958E-001	-3.34938E-001	-3.09948E-001	1.70091E-008	-3.03086E-008	4.73177E-008	-3.35000E-001	3.66206E-004	6	..........a	-327.68
	21	2.2	-2.82885E-001	-3.32987E-001	-3.07936E-001	1.85903E-008	-3.05506E-008	4.91409E-008	-3.33000E-001	3.60206E-004	6	..........a	-327.68
	22	2.3	-2.81030E-001	-3.30879E-001	-3.05955E-001	1.99995E-008	-3.13641E-008	5.13635E-008	-3.31000E-001	3.61373E-004	6	..........a	-327.68
	23	2.4	-2.78957E-001	-3.29014E-001	-3.03985E-001	2.16497E-008	-3.18758E-008	5.35255E-008	-3.29000E-001	3.63539E-004	6	..........a	-327.68
	24	2.5	-2.76997E-001	-3.26964E-001	-3.01981E-001	2.34976E-008	-3.27159E-008	5.62135E-008	-3.27000E-001	3.59873E-004	6	..........a	-327.68
	25	2.6	-2.74915E-001	-3.24983E-001	-2.99949E-001	2.53445E-008	-3.34297E-008	5.87741E-008	-3.25000E-001	3.69706E-004	6	..........a	-327.68
	26	2.7	-2.72978E-001	-3.22929E-001	-2.97953E-001	2.70130E-008	-3.45431E-008	6.15562E-008	-3.23000E-001	3.64873E-004	6	..........a	-327.68
	27	2.8	-2.70958E-001	-3.20972E-001	-2.95965E-001	2.87682E-008	-3.55606E-008	6.43289E-008	-3.21000E-001	3.67373E-004	6	..........a	-327.68
	28	2.9	-2.68971E-001	-3.18945E-001	-2.93958E-001	3.08515E-008	-3.66978E-008	6.75493E-008	-3.19000E-001	3.73373E-004	6	..........a	-327.68
	29	3	-2.66830E-001	-3.16916E-001	-2.91873E-001	3.27097E-008	-3.80589E-008	7.07687E-008	-3.17000E-001	3.72706E-004	6	..........a	-327.68
	30	3.1	-2.65036E-001	-3.14900E-001	-2.89968E-001	3.44856E-008	-3.95071E-008	7.39927E-008	-3.15000E-001	3.69873E-004	6	..........a	-327.68
	31	3.2	-2.62946E-001	-3.12987E-001	-2.87966E-001	3.64159E-008	-4.09913E-008	7.74072E-008	-3.13000E-001	3.73039E-004	6	..........a	-327.68
	32	3.3	-2.60974E-001	-3.10924E-001	-2.85949E-001	3.82091E-008	-4.23311E-008	8.05402E-008	-3.11000E-001	3.75206E-004	6	..........a	-327.68
	33	3.4	-2.58871E-001	-3.08973E-001	-2.83922E-001	3.96956E-008	-4.38620E-008	8.35576E-008	-3.09000E-001	3.78039E-004	6	..........a	-327.68
	34	3.5	-2.56989E-001	-3.06902E-001	-2.81945E-001	4.14935E-008	-4.56052E-008	8.70987E-008	-3.07000E-001	3.75206E-004	6	..........a	-327.68
	35	3.6	-2.54955E-001	-3.05026E-001	-2.79990E-001	4.27747E-008	-4.73951E-008	9.01698E-008	-3.05000E-001	3.74373E-004	6	..........a	-327.68
	36	3.7	-2.52975E-001	-3.02946E-001	-2.77960E-001	4.39782E-008	-4.88496E-008	9.28278E-008	-3.03000E-001	3.87206E-004	6	..........a	-327.68
	37	3.8	-2.50905E-001	-3.01005E-001	-2.75955E-001	4.48316E-008	-5.07155E-008	9.55472E-008	-3.01000E-001	3.83706E-004	6	..........a	-327.68
	38	3.9	-2.48973E-001	-2.98933E-001	-2.73953E-001	4.55754E-008	-5.22394E-008	9.78148E-008	-2.99000E-001	3.78039E-004	6	..........a	-327.68
	39	4	-2.46937E-001	-2.96986E-001	-2.71961E-001	4.62758E-008	-5.37509E-008	1.00027E-007	-2.97000E-001	3.67706E-004	6	..........a	-327.68
	40	4.1	-2.44962E-001	-2.94916E-001	-2.69939E-001	4.68392E-008	-5.54051E-008	1.02244E-007	-2.95000E-001	3.81706E-004	6	..........a	-327.68
	41	4.2	-2.42838E-001	-2.92969E-001	-2.67903E-001	4.69306E-008	-5.66030E-008	1.03534E-007	-2.93000E-001	3.84706E-004	6	..........a	-327.68
	42	4.3	-2.41029E-001	-2.90867E-001	-2.65948E-001	4.67389E-008	-5.79315E-008	1.04670E-007	-2.91000E-001	3.91206E-004	6	..........a	-327.68
	43	4.4	-2.38941E-001	-2.88995E-001	-2.63968E-001	4.64048E-008	-5.87609E-008	1.05166E-007	-2.89000E-001	3.67206E-004	6	..........a	-327.68
	44	4.5	-2.36966E-001	-2.86909E-001	-2.61938E-001	4.61505E-008	-5.95173E-008	1.05668E-007	-2.87000E-001	3.85706E-004	6	..........a	-327.68
	45	4.6	-2.34857E-001	-2.84996E-001	-2.59927E-001	4.54044E-008	-6.03301E-008	1.05734E-007	-2.85000E-001	3.83373E-004	6	..........a	-327.68
	46	4.7	-2.32975E-001	-2.82890E-001	-2.57933E-001	4.46769E-008	-6.04811E-008	1.05158E-007	-2.83000E-001	3.80539E-004	6	..........a	-327.68
	47	4.8	-2.30930E-001	-2.81044E-001	-2.55987E-001	4.36615E-008	-6.06221E-008	1.04284E-007	-2.81000E-001	3.87373E-004	6	..........a	-327.68
	48	4.9	-2.28963E-001	-2.78938E-001	-2.53951E-001	4.27250E-008	-6.07035E-008	1.03428E-007	-2.79000E-001	3.89206E-004	6	..........a	-327.68
	49	5	-2.26888E-001	-2.76985E-001	-2.51937E-001	4.15932E-008	-6.03148E-008	1.01908E-007	-2.77000E-001	3.88373E-004	6	..........a	-327.68
	50	5.1	-2.24983E-001	-2.74919E-001	-2.49951E-001	4.03010E-008	-5.94186E-008	9.97197E-008	-2.75000E-001	3.89539E-004	6	..........a	-327.68
	51	5.2	-2.22936E-001	-2.72977E-001	-2.47956E-001	3.90202E-008	-5.86536E-008	9.76738E-008	-2.73000E-001	3.91206E-004	6	..........a	-327.68
	52	5.3	-2.20967E-001	-2.70919E-001	-2.45943E-001	3.75984E-008	-5.76247E-008	9.52231E-008	-2.71000E-001	4.04373E-004	6	..........a	-327.68
	53	5.4	-2.18926E-001	-2.68936E-001	-2.43931E-001	3.62509E-008	-5.62836E-008	9.25344E-008	-2.69000E-001	3.81373E-004	6	..........a	-327.68
	54	5.5	-2.17056E-001	-2.66840E-001	-2.41948E-001	3.48890E-008	-5.48894E-008	8.97784E-008	-2.67000E-001	3.90873E-004	6	..........a	-327.68
	55	5.6	-2.14898E-001	-2.65047E-001	-2.39973E-001	3.36732E-008	-5.31342E-008	8.68074E-008	-2.65000E-001	3.84706E-004	6	..........a	-327.68
	56	5.7	-2.12934E-001	-2.62931E-001	-2.37932E-001	3.22860E-008	-5.13630E-008	8.36490E-008	-2.63000E-001	3.86873E-004	6	..........a	-327.68
	57	5.8	-2.10887E-001	-2.60990E-001	-2.35938E-001	3.09635E-008	-4.93904E-008	8.03539E-008	-2.61000E-001	3.74373E-004	6	..........a	-327.68
	58	5.9	-2.08970E-001	-2.58892E-001	-2.33931E-001	2.97134E-008	-4.74871E-008	7.72005E-008	-2.59000E-001	3.83873E-004	6	..........a	-327.68
	59	6	-2.06940E-001	-2.56998E-001	-2.31969E-001	2.84479E-008	-4.54335E-008	7.38814E-008	-2.57000E-001	3.65873E-004	6	..........a	-327.68
	60	6.1	-2.04961E-001	-2.54936E-001	-2.29948E-001	2.73294E-008	-4.33169E-008	7.06463E-008	-2.55000E-001	3.69539E-004	6	..........a	-327.68
	61	6.2	-2.02886E-001	-2.52985E-001	-2.27935E-001	2.62969E-008	-4.12553E-008	6.75523E-008	-2.53000E-001	3.67206E-004	6	..........a	-327.68
	62	6.3	-2.00999E-001	-2.50906E-001	-2.25953E-001	2.54382E-008	-3.90641E-008	6.45022E-008	-2.51000E-001	3.59039E-004	6	..........a	-327.68
	63	6.4	-1.98955E-001	-2.48976E-001	-2.23965E-001	2.41907E-008	-3.69171E-008	6.11078E-008	-2.49000E-001	3.62706E-004	6	..........a	-327.68
	64	6.5	-1.96960E-001	-2.46934E-001	-2.21947E-001	2.33896E-008	-3.49365E-008	5.83261E-008	-2.47000E-001	3.69539E-004	6	..........a	-327.68
	65	6.6	-1.94921E-001	-2.44946E-001	-2.19934E-001	2.24764E-008	-3.31583E-008	5.56348E-008	-2.45000E-001	3.70539E-004	6	..........a	-327.68
	66	6.7	-1.92963E-001	-2.42843E-001	-2.17903E-001	2.17050E-008	-3.14347E-008	5.31398E-008	-2.43000E-001	3.53373E-004	6	..........a	-327.68
	67	6.8	-1.90946E-001	-2.41034E-001	-2.15990E-001	2.09626E-008	-2.94618E-008	5.04244E-008	-2.41000E-001	3.53706E-004	6	..........a	-327.68
	68	6.9	-1.88958E-001	-2.38941E-001	-2.13949E-001	2.04188E-008	-2.79716E-008	4.83905E-008	-2.39000E-001	3.45039E-004	6	..........a	-327.68
	69	7	-1.86875E-001	-2.36966E-001	-2.11920E-001	1.97484E-008	-2.62954E-008	4.60439E-008	-2.37000E-001	3.51039E-004	6	..........a	-327.68
	70	7.1	-1.84980E-001	-2.34867E-001	-2.09924E-001	1.89777E-008	-2.50296E-008	4.40073E-008	-2.35000E-001	3.59039E-004	6	..........a	-327.68
	71	7.2	-1.82942E-001	-2.32978E-001	-2.07960E-001	1.86063E-008	-2.37388E-008	4.23451E-008	-2.33000E-001	3.62706E-004	6	..........a	-327.68
	72	7.3	-1.80962E-001	-2.30921E-001	-2.05941E-001	1.81932E-008	-2.24863E-008	4.06795E-008	-2.31000E-001	3.69706E-004	6	..........a	-327.68
	73	7.4	-1.78869E-001	-2.28977E-001	-2.03923E-001	1.77165E-008	-2.14888E-008	3.92053E-008	-2.29000E-001	3.60539E-004	6	..........a	-327.68
	74	7.5	-1.76971E-001	-2.26893E-001	-2.01932E-001	1.71794E-008	-2.05460E-008	3.77255E-008	-2.27000E-001	3.50706E-004	6	..........a	-327.68
	75	7.6	-1.74951E-001	-2.24981E-001	-1.99966E-001	1.70761E-008	-1.93835E-008	3.64596E-008	-2.25000E-001	3.67706E-004	6	..........a	-327.68
	76	7.7	-1.72951E-001	-2.22935E-001	-1.97943E-001	1.67694E-008	-1.85028E-008	3.52722E-008	-2.23000E-001	3.64039E-004	6	..........a	-327.68
	77	7.8	-1.70899E-001	-2.20968E-001	-1.95934E-001	1.65554E-008	-1.78557E-008	3.44110E-008	-2.21000E-001	3.58539E-004	6	..........a	-327.68
	78	7.9	-1.68964E-001	-2.18927E-001	-1.93945E-001	1.62730E-008	-1.73603E-008	3.36333E-008	-2.19000E-001	3.65873E-004	6	..........a	-327.68
	79	8	-1.66945E-001	-2.17065E-001	-1.92005E-001	1.61033E-008	-1.66112E-008	3.27145E-008	-2.17000E-001	3.58873E-004	6	..........a	-327.68
	80	8.1	-1.64832E-001	-2.14920E-001	-1.89876E-001	1.58259E-008	-1.59638E-008	3.17897E-008	-2.15000E-001	3.63706E-004	6	..........a	-327.68
	81	8.2	-1.62831E-001	-2.12940E-001	-1.87886E-001	1.56886E-008	-1.54894E-008	3.11780E-008	-2.13000E-001	3.66039E-004	6	..........a	-327.68
	82	8.3	-1.60949E-001	-2.10887E-001	-1.85918E-001	1.56826E-008	-1.49643E-008	3.06469E-008	-2.11000E-001	3.67539E-004	6	..........a	-327.68
	83	8.4	-1.58929E-001	-2.08965E-001	-1.83947E-001	1.55286E-008	-1.44116E-008	2.99401E-008	-2.09000E-001	3.68373E-004	6	..........a	-327.68
	84	8.5	-1.56908E-001	-2.06916E-001	-1.81912E-001	1.53705E-008	-1.39602E-008	2.93307E-008	-2.07000E-001	3.56039E-004	6	..........a	-327.68
	85	8.6	-1.54861E-001	-2.04961E-001	-1.79911E-001	1.51565E-008	-1.36862E-008	2.88427E-008	-2.05000E-001	3.68539E-004	6	..........a	-327.68
	86	8.7	-1.53001E-001	-2.02885E-001	-1.77943E-001	1.51058E-008	-1.34665E-008	2.85723E-008	-2.03000E-001	3.69539E-004	6	..........a	-327.68
	87	8.8	-1.50951E-001	-2.01005E-001	-1.75978E-001	1.52012E-008	-1.31184E-008	2.83196E-008	-2.01000E-001	3.79373E-004	6	..........a	-327.68
	88	8.9	-1.48943E-001	-1.98943E-001	-1.73943E-001	1.49718E-008	-1.28367E-008	2.78085E-008	-1.99000E-001	3.69706E-004	6	..........a	-327.68
	89	9	-1.46900E-001	-1.96967E-001	-1.71934E-001	1.49585E-008	-1.24527E-008	2.74112E-008	-1.97000E-001	3.54206E-004	6	..........a	-327.68
	90	9.1	-1.44957E-001	-1.94907E-001	-1.69932E-001	1.47051E-008	-1.22036E-008	2.69088E-008	-1.95000E-001	3.59873E-004	6	..........a	-327.68
	91	9.2	-1.42946E-001	-1.92957E-001	-1.67951E-001	1.48215E-008	-1.21113E-008	2.69328E-008	-1.93000E-001	3.61373E-004	6	..........a	-327.68
	92	9.3	-1.40955E-001	-1.90916E-001	-1.65936E-001	1.48795E-008	-1.18326E-008	2.67121E-008	-1.91000E-001	3.61039E-004	6	..........a	-327.68
	93	9.4	-1.38816E-001	-1.88917E-001	-1.63867E-001	1.49475E-008	-1.17476E-008	2.66951E-008	-1.89000E-001	3.65539E-004	6	..........a	-327.68
	94	9.5	-1.36987E-001	-1.86856E-001	-1.61922E-001	1.48761E-008	-1.14169E-008	2.62930E-008	-1.87000E-001	3.62039E-004	6	..........a	-327.68
	95	9.6	-1.34953E-001	-1.84986E-001	-1.59969E-001	1.48981E-008	-1.13159E-008	2.62140E-008	-1.85000E-001	3.46706E-004	6	..........a	-327.68
	96	9.7	-1.32878E-001	-1.82915E-001	-1.57897E-001	1.47988E-008	-1.12959E-008	2.60947E-008	-1.83000E-001	3.58039E-004	6	..........a	-327.68
	97	9.8	-1.30853E-001	-1.80930E-001	-1.55891E-001	1.49318E-008	-1.10528E-008	2.59846E-008	-1.81000E-001	3.59039E-004	6	..........a	-327.68
	98	9.9	-1.28953E-001	-1.78867E-001	-1.53910E-001	1.47545E-008	-1.08228E-008	2.55773E-008	-1.79000E-001	3.60706E-004	6	..........a	-327.68
	99	10	-1.26946E-001	-1.76988E-001	-1.51967E-001	1.49138E-008	-1.08815E-008	2.57953E-008	-1.77000E-001	3.61039E-004	6	..........a	-327.68
	100	10.1	-1.24927E-001	-1.74933E-001	-1.49930E-001	1.50758E-008	-1.06288E-008	2.57046E-008	-1.75000E-001	3.48373E-004	6	..........a	-327.68
