EXPLAIN
TAG	SQUARE_WAVE
TITLE	LABEL	Square Wave Voltammetry	Test Identifier
DATE	LABEL	8/25/2020	Date
TIME	LABEL	13:32:33	Time
NOTES	NOTES	1	Notes...
	
PSTAT	PSTAT	REF600-24079	Potentiostat
VINIT	QUANT	-3.50000E-001	Initial E (V)
VFINAL	QUANT	-1.50000E-001	Final E (V)
STEPSIZE	QUANT	2.00000E+000	Step Size (mV)
TIMERRES	QUANT	3.33340E-005	&Timer Resolution
FREQUENCY	QUANT	1.00000E+001	Frequency (Hz)
PULSESIZE	QUANT	2.50000E+001	Pulse Size E (mV)
PULSEON	QUANT	1.00000E-001	Pulse &Time (s)
NOISEREJECT	TOGGLE	F	Noise Rejection
AREA	QUANT	2.00000E-002	Sample Area (cm^2)
IMODE	SELECTOR	1	I/E Range Mode
IRANGE	QUANT	1.00000E-003	Max Current (mA)
EQDELAY	IQUANT	10	Equil. Time (s)
IRCOMP	SELECTOR	0	IRComp
PFCOR	QUANT	5.00000E+001	PF Corr. (ohm)
CYCLES	IQUANT	101	C&ycles (#)
ELECTRODETYPE	SELECTOR	0	Electrode Type
STRIPPING	TOGGLE	F	Used for Stripping
POLARITY	TOGGLE	F	Signal Polarity
LINEFREQ	IQUANT	60	Line Frequency (Hz)
INTPERIOD	QUANT	3.3334E-005	Integration Period (s)
SEQUENCER	TOGGLE	TRUE	Run as Sequence
PSTATMODEL	IQUANT	4	Pstat Model
PSTATSECTION	LABEL	REF600-24079	Pstat Section
PSTATSERIALNO	LABEL	24079	Pstat Serial Number
CTRLMODE	IQUANT	1	Control Mode
ELECTROMETER	IQUANT	0	RE=0 or CS=1
IESTAB	IQUANT	2	I/E Stability
CASPEED	IQUANT	6	Control Amp Speed
CONVENTION	IQUANT	1	Current Convention
ICHRANGE	IQUANT	2	Ich Range
ICHRANGEMODE	TOGGLE	F	Ich Auto Range
ICHOFFSETENABLE	TOGGLE	F	Ich Offset Enable
ICHOFFSET	QUANT	0	Ich Offset (V)
ICHFILTER	IQUANT	2	Ich Filter
VCHRANGE	IQUANT	2	Vch Range
VCHRANGEMODE	TOGGLE	F	Vch Auto Range
VCHOFFSETENABLE	TOGGLE	F	Vch Offset Enable
VCHOFFSET	QUANT	0	Vch Offset (V)
VCHFILTER	IQUANT	2	Vch Filter
ACHRANGE	IQUANT	2	Ach Range
ACHOFFSETENABLE	TOGGLE	F	Ach Offset Enable
ACHOFFSET	QUANT	0	Ach Offset (V)
ACHFILTER	IQUANT	1	Ach Filter
IERANGELOWERLIMIT	IQUANT	1	I/E Range Lower Limit
IERANGEMODE	TOGGLE	F	I/E AutoRange
IERANGE	IQUANT	6	I/E Range
POSFEEDENABLE	TOGGLE	F	Positive Feedback IR Comp
POSFEEDRESISTANCE	QUANT	0	Positive Feedback Resistance (ohm)
ACHSELECT	IQUANT	0	Ach Select
SENSECABLEID	IQUANT	13	Sense Cable ID
PWRCABLEID	IQUANT	13	Power Cable ID
DCCALDATE	LABEL	6/30/2020	DC Calibration Date
ACCALDATE	LABEL	6/30/2020	AC Calibration Date
THERMOSELECT	IQUANT	1	Thermo Select
FRAMEWORKVERSION	LABEL	7.8.2	Framework Version
INSTRUMENTVERSION	LABEL	4.40	Instrument Version
CURVE	TABLE	101
	Pt	T	Vfwd	Vrev	Vstep	Ifwd	Irev	Idif	Sig	Ach	IERange	Over	Temp
	#	s	V	V	V	A	A	A	V	V	#	bits	deg C
	0	0.1	-3.24886E-001	-3.74898E-001	-3.49892E-001	-6.81662E-009	-3.20498E-008	2.52332E-008	-3.75000E-001	4.10539E-004	6	..........a	-327.68
	1	0.2	-3.22858E-001	-3.72896E-001	-3.47877E-001	3.13598E-009	-2.78900E-008	3.10259E-008	-3.73000E-001	3.93206E-004	6	..........a	-327.68
	2	0.3	-3.20904E-001	-3.70784E-001	-3.45844E-001	5.10157E-009	-2.63524E-008	3.14540E-008	-3.71000E-001	3.83373E-004	6	..........a	-327.68
	3	0.4	-3.18922E-001	-3.68901E-001	-3.43911E-001	6.42773E-009	-2.54940E-008	3.19217E-008	-3.69000E-001	3.88039E-004	6	..........a	-327.68
	4	0.5	-3.16799E-001	-3.66934E-001	-3.41867E-001	7.18083E-009	-2.50369E-008	3.22178E-008	-3.67000E-001	3.86539E-004	6	..........a	-327.68
	5	0.6	-3.14871E-001	-3.64888E-001	-3.39879E-001	7.88525E-009	-2.45269E-008	3.24121E-008	-3.65000E-001	3.93873E-004	6	..........a	-327.68
	6	0.7	-3.12912E-001	-3.62811E-001	-3.37861E-001	8.68835E-009	-2.41122E-008	3.28005E-008	-3.63000E-001	3.90373E-004	6	..........a	-327.68
	7	0.8	-3.10909E-001	-3.60885E-001	-3.35897E-001	9.35344E-009	-2.38688E-008	3.32222E-008	-3.61000E-001	3.92039E-004	6	..........a	-327.68
	8	0.9	-3.08809E-001	-3.58886E-001	-3.33847E-001	1.01039E-008	-2.36714E-008	3.37753E-008	-3.59000E-001	4.01873E-004	6	..........a	-327.68
	9	1	-3.06824E-001	-3.56871E-001	-3.31847E-001	1.08540E-008	-2.34544E-008	3.43084E-008	-3.57000E-001	3.87206E-004	6	..........a	-327.68
	10	1.1	-3.04877E-001	-3.54835E-001	-3.29856E-001	1.14677E-008	-2.33694E-008	3.48371E-008	-3.55000E-001	3.90039E-004	6	..........a	-327.68
	11	1.2	-3.02917E-001	-3.52901E-001	-3.27909E-001	1.20498E-008	-2.34397E-008	3.54895E-008	-3.53000E-001	3.99039E-004	6	..........a	-327.68
	12	1.3	-3.00878E-001	-3.50883E-001	-3.25880E-001	1.30559E-008	-2.34061E-008	3.64620E-008	-3.51000E-001	3.96873E-004	6	..........a	-327.68
	13	1.4	-2.98847E-001	-3.48888E-001	-3.23867E-001	1.39180E-008	-2.34067E-008	3.73247E-008	-3.49000E-001	3.92706E-004	6	..........a	-327.68
	14	1.5	-2.96898E-001	-3.46871E-001	-3.21884E-001	1.49875E-008	-2.34514E-008	3.84389E-008	-3.47000E-001	3.93039E-004	6	..........a	-327.68
	15	1.6	-2.94914E-001	-3.44924E-001	-3.19919E-001	1.58806E-008	-2.34624E-008	3.93430E-008	-3.45000E-001	3.80539E-004	6	..........a	-327.68
	16	1.7	-2.92757E-001	-3.42888E-001	-3.17823E-001	1.70821E-008	-2.38144E-008	4.08965E-008	-3.43000E-001	3.83873E-004	6	..........a	-327.68
	17	1.8	-2.90795E-001	-3.40863E-001	-3.15829E-001	1.80639E-008	-2.41452E-008	4.22090E-008	-3.41000E-001	3.84039E-004	6	..........a	-327.68
	18	1.9	-2.88930E-001	-3.38836E-001	-3.13883E-001	1.94181E-008	-2.45802E-008	4.39983E-008	-3.39000E-001	4.03039E-004	6	..........a	-327.68
	19	2	-2.86889E-001	-3.36861E-001	-3.11875E-001	2.08289E-008	-2.49536E-008	4.57825E-008	-3.37000E-001	3.94039E-004	6	..........a	-327.68
	20	2.1	-2.84821E-001	-3.34899E-001	-3.09860E-001	2.25878E-008	-2.56293E-008	4.82171E-008	-3.35000E-001	3.99706E-004	6	..........a	-327.68
	21	2.2	-2.82807E-001	-3.32833E-001	-3.07820E-001	2.39110E-008	-2.64338E-008	5.03447E-008	-3.33000E-001	3.96206E-004	6	..........a	-327.68
	22	2.3	-2.80888E-001	-3.30804E-001	-3.05846E-001	2.57382E-008	-2.73016E-008	5.30397E-008	-3.31000E-001	3.88873E-004	6	..........a	-327.68
	23	2.4	-2.78889E-001	-3.28875E-001	-3.03882E-001	2.76211E-008	-2.80343E-008	5.56554E-008	-3.29000E-001	4.01373E-004	6	..........a	-327.68
	24	2.5	-2.76878E-001	-3.26895E-001	-3.01886E-001	2.92426E-008	-2.92411E-008	5.84838E-008	-3.27000E-001	3.90706E-004	6	..........a	-327.68
	25	2.6	-2.74829E-001	-3.24869E-001	-2.99849E-001	3.13216E-008	-3.03726E-008	6.16942E-008	-3.25000E-001	3.93873E-004	6	..........a	-327.68
	26	2.7	-2.72886E-001	-3.22858E-001	-2.97872E-001	3.33235E-008	-3.15728E-008	6.48963E-008	-3.23000E-001	3.93539E-004	6	..........a	-327.68
	27	2.8	-2.70897E-001	-3.20887E-001	-2.95892E-001	3.52034E-008	-3.29066E-008	6.81100E-008	-3.21000E-001	4.13539E-004	6	..........a	-327.68
	28	2.9	-2.68885E-001	-3.18916E-001	-2.93900E-001	3.73137E-008	-3.43905E-008	7.17041E-008	-3.19000E-001	3.98873E-004	6	..........a	-327.68
	29	3	-2.66780E-001	-3.16787E-001	-2.91783E-001	3.93876E-008	-3.57886E-008	7.51762E-008	-3.17000E-001	3.90873E-004	6	..........a	-327.68
	30	3.1	-2.64875E-001	-3.14866E-001	-2.89871E-001	4.14172E-008	-3.76722E-008	7.90894E-008	-3.15000E-001	4.04539E-004	6	..........a	-327.68
	31	3.2	-2.62912E-001	-3.12901E-001	-2.87907E-001	4.33178E-008	-3.94098E-008	8.27275E-008	-3.13000E-001	3.82039E-004	6	..........a	-327.68
	32	3.3	-2.60788E-001	-3.10880E-001	-2.85834E-001	4.51667E-008	-4.13770E-008	8.65437E-008	-3.11000E-001	3.92539E-004	6	..........a	-327.68
	33	3.4	-2.58804E-001	-3.08866E-001	-2.83835E-001	4.68215E-008	-4.30876E-008	8.99091E-008	-3.09000E-001	3.97873E-004	6	..........a	-327.68
	34	3.5	-2.56860E-001	-3.06827E-001	-2.81843E-001	4.84941E-008	-4.52045E-008	9.36986E-008	-3.07000E-001	4.02206E-004	6	..........a	-327.68
	35	3.6	-2.54896E-001	-3.04894E-001	-2.79895E-001	4.98493E-008	-4.70041E-008	9.68533E-008	-3.05000E-001	3.88373E-004	6	..........a	-327.68
	36	3.7	-2.52864E-001	-3.02893E-001	-2.77879E-001	5.08624E-008	-4.89780E-008	9.98404E-008	-3.03000E-001	3.88373E-004	6	..........a	-327.68
	37	3.8	-2.50827E-001	-3.00901E-001	-2.75864E-001	5.21185E-008	-5.08035E-008	1.02922E-007	-3.01000E-001	3.93206E-004	6	..........a	-327.68
	38	3.9	-2.48883E-001	-2.98846E-001	-2.73865E-001	5.25669E-008	-5.25634E-008	1.05130E-007	-2.99000E-001	3.96539E-004	6	..........a	-327.68
	39	4	-2.46888E-001	-2.96882E-001	-2.71885E-001	5.30477E-008	-5.45507E-008	1.07598E-007	-2.97000E-001	4.04873E-004	6	..........a	-327.68
	40	4.1	-2.44892E-001	-2.94853E-001	-2.69872E-001	5.33760E-008	-5.62552E-008	1.09631E-007	-2.95000E-001	3.99206E-004	6	..........a	-327.68
	41	4.2	-2.42770E-001	-2.92780E-001	-2.67775E-001	5.34160E-008	-5.77094E-008	1.11125E-007	-2.93000E-001	4.17206E-004	6	..........a	-327.68
	42	4.3	-2.40866E-001	-2.90798E-001	-2.65832E-001	5.32537E-008	-5.88676E-008	1.12121E-007	-2.91000E-001	4.21373E-004	6	..........a	-327.68
	43	4.4	-2.38895E-001	-2.88908E-001	-2.63902E-001	5.27913E-008	-5.99294E-008	1.12721E-007	-2.89000E-001	4.09373E-004	6	..........a	-327.68
	44	4.5	-2.36864E-001	-2.86873E-001	-2.61869E-001	5.20132E-008	-6.06998E-008	1.12713E-007	-2.87000E-001	4.02706E-004	6	..........a	-327.68
	45	4.6	-2.34798E-001	-2.84848E-001	-2.59823E-001	5.12091E-008	-6.12849E-008	1.12494E-007	-2.85000E-001	4.12206E-004	6	..........a	-327.68
	46	4.7	-2.32848E-001	-2.82812E-001	-2.57830E-001	5.02753E-008	-6.13509E-008	1.11626E-007	-2.83000E-001	4.18039E-004	6	..........a	-327.68
	47	4.8	-2.30871E-001	-2.80904E-001	-2.55888E-001	4.88915E-008	-6.16463E-008	1.10538E-007	-2.81000E-001	4.09539E-004	6	..........a	-327.68
	48	4.9	-2.28804E-001	-2.78868E-001	-2.53836E-001	4.81697E-008	-6.11375E-008	1.09307E-007	-2.79000E-001	4.10873E-004	6	..........a	-327.68
	49	5	-2.26812E-001	-2.76884E-001	-2.51848E-001	4.64955E-008	-6.07808E-008	1.07276E-007	-2.77000E-001	4.05873E-004	6	..........a	-327.68
	50	5.1	-2.24878E-001	-2.74845E-001	-2.49862E-001	4.49986E-008	-6.00467E-008	1.05045E-007	-2.75000E-001	4.02206E-004	6	..........a	-327.68
	51	5.2	-2.22876E-001	-2.72876E-001	-2.47876E-001	4.35975E-008	-5.86546E-008	1.02252E-007	-2.73000E-001	4.10706E-004	6	..........a	-327.68
	52	5.3	-2.20867E-001	-2.70867E-001	-2.45867E-001	4.21096E-008	-5.73887E-008	9.94983E-008	-2.71000E-001	4.03873E-004	6	..........a	-327.68
	53	5.4	-2.18859E-001	-2.68864E-001	-2.43862E-001	4.05537E-008	-5.57855E-008	9.63393E-008	-2.69000E-001	4.17706E-004	6	..........a	-327.68
	54	5.5	-2.16888E-001	-2.66789E-001	-2.41839E-001	3.90659E-008	-5.39763E-008	9.30422E-008	-2.67000E-001	3.96206E-004	6	..........a	-327.68
	55	5.6	-2.14869E-001	-2.64895E-001	-2.39882E-001	3.75164E-008	-5.23014E-008	8.98178E-008	-2.65000E-001	4.01706E-004	6	..........a	-327.68
	56	5.7	-2.12863E-001	-2.62894E-001	-2.37879E-001	3.59765E-008	-5.03908E-008	8.63673E-008	-2.63000E-001	3.95206E-004	6	..........a	-327.68
	57	5.8	-2.10826E-001	-2.60847E-001	-2.35837E-001	3.44010E-008	-4.81816E-008	8.25825E-008	-2.61000E-001	3.82373E-004	6	..........a	-327.68
	58	5.9	-2.08855E-001	-2.58811E-001	-2.33833E-001	3.32405E-008	-4.60950E-008	7.93354E-008	-2.59000E-001	3.88539E-004	6	..........a	-327.68
	59	6	-2.06894E-001	-2.56874E-001	-2.31884E-001	3.17006E-008	-4.38420E-008	7.55426E-008	-2.57000E-001	3.97706E-004	6	..........a	-327.68
	60	6.1	-2.04820E-001	-2.54895E-001	-2.29858E-001	3.04051E-008	-4.17274E-008	7.21325E-008	-2.55000E-001	3.83039E-004	6	..........a	-327.68
	61	6.2	-2.02811E-001	-2.52811E-001	-2.27811E-001	2.94863E-008	-3.94444E-008	6.89308E-008	-2.53000E-001	3.90039E-004	6	..........a	-327.68
	62	6.3	-2.00866E-001	-2.50831E-001	-2.25849E-001	2.80181E-008	-3.71638E-008	6.51820E-008	-2.51000E-001	3.85373E-004	6	..........a	-327.68
	63	6.4	-1.98892E-001	-2.48873E-001	-2.23883E-001	2.71234E-008	-3.48105E-008	6.19339E-008	-2.49000E-001	3.93206E-004	6	..........a	-327.68
	64	6.5	-1.96862E-001	-2.46888E-001	-2.21875E-001	2.59986E-008	-3.28216E-008	5.88202E-008	-2.47000E-001	3.87539E-004	6	..........a	-327.68
	65	6.6	-1.94845E-001	-2.44884E-001	-2.19865E-001	2.50561E-008	-3.09534E-008	5.60095E-008	-2.45000E-001	3.91039E-004	6	..........a	-327.68
	66	6.7	-1.92889E-001	-2.42783E-001	-2.17836E-001	2.40620E-008	-2.90905E-008	5.31524E-008	-2.43000E-001	3.94206E-004	6	..........a	-327.68
	67	6.8	-1.90901E-001	-2.40906E-001	-2.15904E-001	2.32422E-008	-2.73442E-008	5.05864E-008	-2.41000E-001	3.75206E-004	6	..........a	-327.68
	68	6.9	-1.88766E-001	-2.38923E-001	-2.13845E-001	2.24211E-008	-2.56250E-008	4.80461E-008	-2.39000E-001	3.94706E-004	6	..........a	-327.68
	69	7	-1.86807E-001	-2.36876E-001	-2.11842E-001	2.15137E-008	-2.40185E-008	4.55321E-008	-2.37000E-001	3.97373E-004	6	..........a	-327.68
	70	7.1	-1.84891E-001	-2.34812E-001	-2.09852E-001	2.11419E-008	-2.27586E-008	4.39006E-008	-2.35000E-001	4.01206E-004	6	..........a	-327.68
	71	7.2	-1.82873E-001	-2.32857E-001	-2.07865E-001	2.05655E-008	-2.12088E-008	4.17743E-008	-2.33000E-001	3.97206E-004	6	..........a	-327.68
	72	7.3	-1.80816E-001	-2.30877E-001	-2.05847E-001	1.99338E-008	-2.02843E-008	4.02181E-008	-2.31000E-001	4.01373E-004	6	..........a	-327.68
	73	7.4	-1.78805E-001	-2.28824E-001	-2.03814E-001	1.95257E-008	-1.88975E-008	3.84232E-008	-2.29000E-001	3.97373E-004	6	..........a	-327.68
	74	7.5	-1.76853E-001	-2.26816E-001	-2.01834E-001	1.91010E-008	-1.79747E-008	3.70757E-008	-2.27000E-001	3.88873E-004	6	..........a	-327.68
	75	7.6	-1.74882E-001	-2.24878E-001	-1.99880E-001	1.85726E-008	-1.72793E-008	3.58519E-008	-2.25000E-001	3.89039E-004	6	..........a	-327.68
	76	7.7	-1.72858E-001	-2.22869E-001	-1.97863E-001	1.83049E-008	-1.62745E-008	3.45794E-008	-2.23000E-001	4.08706E-004	6	..........a	-327.68
	77	7.8	-1.70820E-001	-2.20868E-001	-1.95844E-001	1.79999E-008	-1.53507E-008	3.33506E-008	-2.21000E-001	4.02539E-004	6	..........a	-327.68
	78	7.9	-1.68873E-001	-2.18865E-001	-1.93869E-001	1.76928E-008	-1.47810E-008	3.24738E-008	-2.19000E-001	3.92706E-004	6	..........a	-327.68
	79	8	-1.66890E-001	-2.16917E-001	-1.91904E-001	1.74505E-008	-1.41999E-008	3.16504E-008	-2.17000E-001	3.77706E-004	6	..........a	-327.68
	80	8.1	-1.64717E-001	-2.14892E-001	-1.89805E-001	1.71624E-008	-1.35548E-008	3.07172E-008	-2.15000E-001	3.86206E-004	6	..........a	-327.68
	81	8.2	-1.62784E-001	-2.12821E-001	-1.87803E-001	1.70804E-008	-1.30231E-008	3.01035E-008	-2.13000E-001	3.99039E-004	6	..........a	-327.68
	82	8.3	-1.60910E-001	-2.10832E-001	-1.85871E-001	1.67937E-008	-1.25667E-008	2.93604E-008	-2.11000E-001	3.90206E-004	6	..........a	-327.68
	83	8.4	-1.58880E-001	-2.08860E-001	-1.83870E-001	1.66280E-008	-1.21050E-008	2.87330E-008	-2.09000E-001	3.90206E-004	6	..........a	-327.68
	84	8.5	-1.56788E-001	-2.06891E-001	-1.81839E-001	1.62940E-008	-1.16862E-008	2.79802E-008	-2.07000E-001	3.89873E-004	6	..........a	-327.68
	85	8.6	-1.54776E-001	-2.04801E-001	-1.79788E-001	1.64817E-008	-1.13225E-008	2.78042E-008	-2.05000E-001	3.85373E-004	6	..........a	-327.68
	86	8.7	-1.52859E-001	-2.02807E-001	-1.77833E-001	1.62183E-008	-1.10745E-008	2.72928E-008	-2.03000E-001	3.89873E-004	6	..........a	-327.68
	87	8.8	-1.50883E-001	-2.00880E-001	-1.75881E-001	1.62437E-008	-1.08488E-008	2.70924E-008	-2.01000E-001	3.92039E-004	6	..........a	-327.68
	88	8.9	-1.48843E-001	-1.98892E-001	-1.73867E-001	1.61640E-008	-1.04567E-008	2.66207E-008	-1.99000E-001	3.93539E-004	6	..........a	-327.68
	89	9	-1.46819E-001	-1.96860E-001	-1.71840E-001	1.59786E-008	-1.02981E-008	2.62767E-008	-1.97000E-001	3.79873E-004	6	..........a	-327.68
	90	9.1	-1.44866E-001	-1.94847E-001	-1.69856E-001	1.61986E-008	-1.00274E-008	2.62260E-008	-1.95000E-001	3.76373E-004	6	..........a	-327.68
	91	9.2	-1.42898E-001	-1.92885E-001	-1.67891E-001	1.58959E-008	-9.99569E-009	2.58916E-008	-1.93000E-001	3.90206E-004	6	..........a	-327.68
	92	9.3	-1.40866E-001	-1.90906E-001	-1.65886E-001	1.60243E-008	-9.79666E-009	2.58210E-008	-1.91000E-001	3.86706E-004	6	..........a	-327.68
	93	9.4	-1.38761E-001	-1.88764E-001	-1.63763E-001	1.58089E-008	-9.60364E-009	2.54126E-008	-1.89000E-001	4.01539E-004	6	..........a	-327.68
	94	9.5	-1.36869E-001	-1.86816E-001	-1.61843E-001	1.59373E-008	-9.40928E-009	2.53466E-008	-1.87000E-001	3.95206E-004	6	..........a	-327.68
	95	9.6	-1.34920E-001	-1.84896E-001	-1.59908E-001	1.57676E-008	-9.16325E-009	2.49308E-008	-1.85000E-001	3.93706E-004	6	..........a	-327.68
	96	9.7	-1.32764E-001	-1.82862E-001	-1.57813E-001	1.59900E-008	-9.33194E-009	2.53219E-008	-1.83000E-001	3.83039E-004	6	..........a	-327.68
	97	9.8	-1.30774E-001	-1.80823E-001	-1.55799E-001	1.59313E-008	-8.78153E-009	2.47128E-008	-1.81000E-001	3.81206E-004	6	..........a	-327.68
	98	9.9	-1.28830E-001	-1.78798E-001	-1.53814E-001	1.59203E-008	-8.70186E-009	2.46221E-008	-1.79000E-001	3.89039E-004	6	..........a	-327.68
	99	10	-1.26883E-001	-1.76844E-001	-1.51863E-001	1.58323E-008	-8.63485E-009	2.44671E-008	-1.77000E-001	3.97706E-004	6	..........a	-327.68
	100	10.1	-1.24796E-001	-1.74873E-001	-1.49835E-001	1.61330E-008	-8.58184E-009	2.47148E-008	-1.75000E-001	3.88873E-004	6	..........a	-327.68
