EXPLAIN
TAG	SQUARE_WAVE
TITLE	LABEL	Square Wave Voltammetry	Test Identifier
DATE	LABEL	8/25/2020	Date
TIME	LABEL	15:05:40	Time
NOTES	NOTES	1	Notes...
	
PSTAT	PSTAT	REF600-24079	Potentiostat
VINIT	QUANT	-3.50000E-001	Initial E (V)
VFINAL	QUANT	-1.50000E-001	Final E (V)
STEPSIZE	QUANT	2.00000E+000	Step Size (mV)
TIMERRES	QUANT	3.33340E-005	&Timer Resolution
FREQUENCY	QUANT	1.00000E+002	Frequency (Hz)
PULSESIZE	QUANT	2.50000E+001	Pulse Size E (mV)
PULSEON	QUANT	1.00000E-002	Pulse &Time (s)
NOISEREJECT	TOGGLE	F	Noise Rejection
AREA	QUANT	2.00000E-002	Sample Area (cm^2)
IMODE	SELECTOR	1	I/E Range Mode
IRANGE	QUANT	1.00000E-002	Max Current (mA)
EQDELAY	IQUANT	10	Equil. Time (s)
IRCOMP	SELECTOR	0	IRComp
PFCOR	QUANT	5.00000E+001	PF Corr. (ohm)
CYCLES	IQUANT	101	C&ycles (#)
ELECTRODETYPE	SELECTOR	0	Electrode Type
STRIPPING	TOGGLE	F	Used for Stripping
POLARITY	TOGGLE	F	Signal Polarity
LINEFREQ	IQUANT	60	Line Frequency (Hz)
INTPERIOD	QUANT	3.3334E-005	Integration Period (s)
SEQUENCER	TOGGLE	TRUE	Run as Sequence
PSTATMODEL	IQUANT	4	Pstat Model
PSTATSECTION	LABEL	REF600-24079	Pstat Section
PSTATSERIALNO	LABEL	24079	Pstat Serial Number
CTRLMODE	IQUANT	1	Control Mode
ELECTROMETER	IQUANT	0	RE=0 or CS=1
IESTAB	IQUANT	2	I/E Stability
CASPEED	IQUANT	6	Control Amp Speed
CONVENTION	IQUANT	1	Current Convention
ICHRANGE	IQUANT	2	Ich Range
ICHRANGEMODE	TOGGLE	F	Ich Auto Range
ICHOFFSETENABLE	TOGGLE	F	Ich Offset Enable
ICHOFFSET	QUANT	0	Ich Offset (V)
ICHFILTER	IQUANT	2	Ich Filter
VCHRANGE	IQUANT	2	Vch Range
VCHRANGEMODE	TOGGLE	F	Vch Auto Range
VCHOFFSETENABLE	TOGGLE	F	Vch Offset Enable
VCHOFFSET	QUANT	0	Vch Offset (V)
VCHFILTER	IQUANT	2	Vch Filter
ACHRANGE	IQUANT	2	Ach Range
ACHOFFSETENABLE	TOGGLE	F	Ach Offset Enable
ACHOFFSET	QUANT	0	Ach Offset (V)
ACHFILTER	IQUANT	1	Ach Filter
IERANGELOWERLIMIT	IQUANT	1	I/E Range Lower Limit
IERANGEMODE	TOGGLE	F	I/E AutoRange
IERANGE	IQUANT	7	I/E Range
POSFEEDENABLE	TOGGLE	F	Positive Feedback IR Comp
POSFEEDRESISTANCE	QUANT	0	Positive Feedback Resistance (ohm)
ACHSELECT	IQUANT	0	Ach Select
SENSECABLEID	IQUANT	13	Sense Cable ID
PWRCABLEID	IQUANT	13	Power Cable ID
DCCALDATE	LABEL	6/30/2020	DC Calibration Date
ACCALDATE	LABEL	6/30/2020	AC Calibration Date
THERMOSELECT	IQUANT	1	Thermo Select
FRAMEWORKVERSION	LABEL	7.8.2	Framework Version
INSTRUMENTVERSION	LABEL	4.40	Instrument Version
CURVE	TABLE	101
	Pt	T	Vfwd	Vrev	Vstep	Ifwd	Irev	Idif	Sig	Ach	IERange	Over	Temp
	#	s	V	V	V	A	A	A	V	V	#	bits	deg C
	0	0.01	-3.24933E-001	-3.73974E-001	-3.49453E-001	-7.71389E-010	-2.02732E-007	2.01961E-007	-3.75000E-001	3.74373E-004	7	..........a	-327.68
	1	0.02	-3.23906E-001	-3.71974E-001	-3.47940E-001	1.27179E-007	-1.71461E-007	2.98641E-007	-3.73000E-001	4.04373E-004	7	..........a	-327.68
	2	0.03	-3.21878E-001	-3.69931E-001	-3.45904E-001	1.40615E-007	-1.61760E-007	3.02375E-007	-3.71000E-001	3.81039E-004	7	..........a	-327.68
	3	0.04	-3.19854E-001	-3.67876E-001	-3.43865E-001	1.47182E-007	-1.58426E-007	3.05608E-007	-3.69000E-001	3.76039E-004	7	..........a	-327.68
	4	0.05	-3.17869E-001	-3.65941E-001	-3.41905E-001	1.48916E-007	-1.54359E-007	3.03275E-007	-3.67000E-001	4.22706E-004	7	..........a	-327.68
	5	0.06	-3.15874E-001	-3.63981E-001	-3.39928E-001	1.52149E-007	-1.51225E-007	3.03375E-007	-3.65000E-001	3.72706E-004	7	..........a	-327.68
	6	0.07	-3.13906E-001	-3.61998E-001	-3.37952E-001	1.53083E-007	-1.49892E-007	3.02975E-007	-3.63000E-001	4.21039E-004	7	..........a	-327.68
	7	0.08	-3.11844E-001	-3.59918E-001	-3.35881E-001	1.54283E-007	-1.47991E-007	3.02275E-007	-3.61000E-001	3.97706E-004	7	..........a	-327.68
	8	0.09	-3.09856E-001	-3.57956E-001	-3.33906E-001	1.55750E-007	-1.49392E-007	3.05142E-007	-3.59000E-001	3.74373E-004	7	..........a	-327.68
	9	0.1	-3.07886E-001	-3.55983E-001	-3.31934E-001	1.54750E-007	-1.49092E-007	3.03841E-007	-3.57000E-001	3.96039E-004	7	..........a	-327.68
	10	0.11	-3.05891E-001	-3.53979E-001	-3.29935E-001	1.55783E-007	-1.50725E-007	3.06508E-007	-3.55000E-001	3.59373E-004	7	..........a	-327.68
	11	0.12	-3.03858E-001	-3.51959E-001	-3.27908E-001	1.60084E-007	-1.51459E-007	3.11542E-007	-3.53000E-001	3.86039E-004	7	..........a	-327.68
	12	0.13	-3.01871E-001	-3.49979E-001	-3.25925E-001	1.57650E-007	-1.52159E-007	3.09809E-007	-3.51000E-001	3.91039E-004	7	..........a	-327.68
	13	0.14	-2.99884E-001	-3.47998E-001	-3.23941E-001	1.60884E-007	-1.51525E-007	3.12409E-007	-3.49000E-001	3.92706E-004	7	..........a	-327.68
	14	0.15	-2.97869E-001	-3.46011E-001	-3.21940E-001	1.62451E-007	-1.53692E-007	3.16143E-007	-3.47000E-001	3.91039E-004	7	..........a	-327.68
	15	0.16	-2.95881E-001	-3.43858E-001	-3.19869E-001	1.60084E-007	-1.52292E-007	3.12376E-007	-3.45000E-001	3.84373E-004	7	..........a	-327.68
	16	0.17	-2.93816E-001	-3.41973E-001	-3.17894E-001	1.62151E-007	-1.53859E-007	3.16010E-007	-3.43000E-001	3.91039E-004	7	..........a	-327.68
	17	0.18	-2.91904E-001	-3.40009E-001	-3.15957E-001	1.60951E-007	-1.52892E-007	3.13843E-007	-3.41000E-001	3.91039E-004	7	..........a	-327.68
	18	0.19	-2.89839E-001	-3.37996E-001	-3.13918E-001	1.62217E-007	-1.55926E-007	3.18143E-007	-3.39000E-001	4.29373E-004	7	..........a	-327.68
	19	0.2	-2.87841E-001	-3.35908E-001	-3.11874E-001	1.61817E-007	-1.55159E-007	3.16977E-007	-3.37000E-001	4.02706E-004	7	..........a	-327.68
	20	0.21	-2.85858E-001	-3.33976E-001	-3.09917E-001	1.63351E-007	-1.59793E-007	3.23144E-007	-3.35000E-001	3.87706E-004	7	..........a	-327.68
	21	0.22	-2.83876E-001	-3.32001E-001	-3.07938E-001	1.65818E-007	-1.60393E-007	3.26211E-007	-3.33000E-001	3.99373E-004	7	..........a	-327.68
	22	0.23	-2.81829E-001	-3.29981E-001	-3.05905E-001	1.69819E-007	-1.63127E-007	3.32945E-007	-3.31000E-001	4.01039E-004	7	..........a	-327.68
	23	0.24	-2.79779E-001	-3.27951E-001	-3.03865E-001	1.68818E-007	-1.66694E-007	3.35512E-007	-3.29000E-001	3.96039E-004	7	..........a	-327.68
	24	0.25	-2.77848E-001	-3.25961E-001	-3.01904E-001	1.73119E-007	-1.68494E-007	3.41613E-007	-3.27000E-001	3.84373E-004	7	..........a	-327.68
	25	0.26	-2.75838E-001	-3.24003E-001	-2.99920E-001	1.75619E-007	-1.72095E-007	3.47714E-007	-3.25000E-001	3.67706E-004	7	..........a	-327.68
	26	0.27	-2.73858E-001	-3.21984E-001	-2.97921E-001	1.76619E-007	-1.73562E-007	3.50181E-007	-3.23000E-001	3.91039E-004	7	..........a	-327.68
	27	0.28	-2.71819E-001	-3.19939E-001	-2.95879E-001	1.79920E-007	-1.77662E-007	3.57582E-007	-3.21000E-001	3.86039E-004	7	..........a	-327.68
	28	0.29	-2.69848E-001	-3.17969E-001	-2.93908E-001	1.82820E-007	-1.81129E-007	3.63950E-007	-3.19000E-001	3.92706E-004	7	..........a	-327.68
	29	0.3	-2.67841E-001	-3.16016E-001	-2.91928E-001	1.84854E-007	-1.84996E-007	3.69850E-007	-3.17000E-001	3.81039E-004	7	..........a	-327.68
	30	0.31	-2.65789E-001	-3.14041E-001	-2.89915E-001	1.85521E-007	-1.89164E-007	3.74684E-007	-3.15000E-001	4.06039E-004	7	..........a	-327.68
	31	0.32	-2.63753E-001	-3.11933E-001	-2.87843E-001	1.90355E-007	-1.91431E-007	3.81785E-007	-3.13000E-001	3.76039E-004	7	..........a	-327.68
	32	0.33	-2.61821E-001	-3.09981E-001	-2.85901E-001	1.92288E-007	-1.92864E-007	3.85153E-007	-3.11000E-001	3.94373E-004	7	..........a	-327.68
	33	0.34	-2.59816E-001	-3.08031E-001	-2.83923E-001	1.97322E-007	-2.00132E-007	3.97454E-007	-3.09000E-001	3.71039E-004	7	..........a	-327.68
	34	0.35	-2.57831E-001	-3.06049E-001	-2.81940E-001	2.00289E-007	-2.03066E-007	4.03355E-007	-3.07000E-001	3.94373E-004	7	..........a	-327.68
	35	0.36	-2.55739E-001	-3.03976E-001	-2.79858E-001	2.06290E-007	-2.07366E-007	4.13656E-007	-3.05000E-001	4.22706E-004	7	..........a	-327.68
	36	0.37	-2.53856E-001	-3.02016E-001	-2.77936E-001	2.11091E-007	-2.14667E-007	4.25758E-007	-3.03000E-001	3.52706E-004	7	..........a	-327.68
	37	0.38	-2.51826E-001	-3.00046E-001	-2.75936E-001	2.17325E-007	-2.18968E-007	4.36293E-007	-3.01000E-001	3.81039E-004	7	..........a	-327.68
	38	0.39	-2.49819E-001	-2.98041E-001	-2.73930E-001	2.21859E-007	-2.23135E-007	4.44994E-007	-2.99000E-001	3.97706E-004	7	..........a	-327.68
	39	0.4	-2.47753E-001	-2.96008E-001	-2.71880E-001	2.27526E-007	-2.26002E-007	4.53528E-007	-2.97000E-001	3.74373E-004	7	..........a	-327.68
	40	0.41	-2.45808E-001	-2.94011E-001	-2.69909E-001	2.28393E-007	-2.26469E-007	4.54862E-007	-2.95000E-001	4.01039E-004	7	..........a	-327.68
	41	0.42	-2.43808E-001	-2.92068E-001	-2.67938E-001	2.29293E-007	-2.29603E-007	4.58896E-007	-2.93000E-001	3.84373E-004	7	..........a	-327.68
	42	0.43	-2.41741E-001	-2.90056E-001	-2.65898E-001	2.33994E-007	-2.32836E-007	4.66830E-007	-2.91000E-001	3.66039E-004	7	..........a	-327.68
	43	0.44	-2.39679E-001	-2.87998E-001	-2.63838E-001	2.39161E-007	-2.36904E-007	4.76065E-007	-2.89000E-001	3.71039E-004	7	..........a	-327.68
	44	0.45	-2.37833E-001	-2.85998E-001	-2.61915E-001	2.41162E-007	-2.37170E-007	4.78332E-007	-2.87000E-001	3.94373E-004	7	..........a	-327.68
	45	0.46	-2.35801E-001	-2.84028E-001	-2.59914E-001	2.42562E-007	-2.38637E-007	4.81199E-007	-2.85000E-001	3.59373E-004	7	..........a	-327.68
	46	0.47	-2.33786E-001	-2.82061E-001	-2.57923E-001	2.45629E-007	-2.40337E-007	4.85966E-007	-2.83000E-001	3.44373E-004	7	..........a	-327.68
	47	0.48	-2.31744E-001	-2.80004E-001	-2.55874E-001	2.48463E-007	-2.40037E-007	4.88500E-007	-2.81000E-001	3.94373E-004	7	..........a	-327.68
	48	0.49	-2.29803E-001	-2.78026E-001	-2.53914E-001	2.49563E-007	-2.38937E-007	4.88500E-007	-2.79000E-001	3.77706E-004	7	..........a	-327.68
	49	0.5	-2.27804E-001	-2.76076E-001	-2.51940E-001	2.51363E-007	-2.38037E-007	4.89400E-007	-2.77000E-001	3.97706E-004	7	..........a	-327.68
	50	0.51	-2.25804E-001	-2.74071E-001	-2.49938E-001	2.49696E-007	-2.38470E-007	4.88167E-007	-2.75000E-001	3.91039E-004	7	..........a	-327.68
	51	0.52	-2.23753E-001	-2.72024E-001	-2.47888E-001	2.51896E-007	-2.35937E-007	4.87833E-007	-2.73000E-001	3.82706E-004	7	..........a	-327.68
	52	0.53	-2.21819E-001	-2.70038E-001	-2.45928E-001	2.54197E-007	-2.34637E-007	4.88833E-007	-2.71000E-001	3.92706E-004	7	..........a	-327.68
	53	0.54	-2.19804E-001	-2.68078E-001	-2.43941E-001	2.52863E-007	-2.31770E-007	4.84633E-007	-2.69000E-001	3.54373E-004	7	..........a	-327.68
	54	0.55	-2.17799E-001	-2.66048E-001	-2.41923E-001	2.51230E-007	-2.28336E-007	4.79565E-007	-2.67000E-001	3.91039E-004	7	..........a	-327.68
	55	0.56	-2.15701E-001	-2.64003E-001	-2.39852E-001	2.50496E-007	-2.25769E-007	4.76265E-007	-2.65000E-001	3.99373E-004	7	..........a	-327.68
	56	0.57	-2.13806E-001	-2.62031E-001	-2.37918E-001	2.49563E-007	-2.22435E-007	4.71998E-007	-2.63000E-001	4.12706E-004	7	..........a	-327.68
	57	0.58	-2.11843E-001	-2.60051E-001	-2.35947E-001	2.47462E-007	-2.15934E-007	4.63396E-007	-2.61000E-001	3.81039E-004	7	..........a	-327.68
	58	0.59	-2.09779E-001	-2.58064E-001	-2.33922E-001	2.44395E-007	-2.13767E-007	4.58162E-007	-2.59000E-001	3.82706E-004	7	..........a	-327.68
	59	0.6	-2.07723E-001	-2.55984E-001	-2.31853E-001	2.43695E-007	-2.09266E-007	4.52962E-007	-2.57000E-001	4.11039E-004	7	..........a	-327.68
	60	0.61	-2.05819E-001	-2.54023E-001	-2.29921E-001	2.42095E-007	-2.06399E-007	4.48494E-007	-2.55000E-001	3.86039E-004	7	..........a	-327.68
	61	0.62	-2.03848E-001	-2.52056E-001	-2.27952E-001	2.42395E-007	-2.04699E-007	4.47094E-007	-2.53000E-001	3.77706E-004	7	..........a	-327.68
	62	0.63	-2.01806E-001	-2.50084E-001	-2.25945E-001	2.42062E-007	-1.99232E-007	4.41293E-007	-2.51000E-001	3.97706E-004	7	..........a	-327.68
	63	0.64	-1.99793E-001	-2.47976E-001	-2.23884E-001	2.41362E-007	-1.96131E-007	4.37493E-007	-2.49000E-001	4.21039E-004	7	..........a	-327.68
	64	0.65	-1.97828E-001	-2.46054E-001	-2.21941E-001	2.37494E-007	-1.89997E-007	4.27492E-007	-2.47000E-001	4.22706E-004	7	..........a	-327.68
	65	0.66	-1.95828E-001	-2.44051E-001	-2.19939E-001	2.36528E-007	-1.85163E-007	4.21691E-007	-2.45000E-001	3.96039E-004	7	..........a	-327.68
	66	0.67	-1.93843E-001	-2.42059E-001	-2.17951E-001	2.33527E-007	-1.79962E-007	4.13490E-007	-2.43000E-001	3.99373E-004	7	..........a	-327.68
	67	0.68	-1.91788E-001	-2.39963E-001	-2.15875E-001	2.32360E-007	-1.76895E-007	4.09256E-007	-2.41000E-001	4.16039E-004	7	..........a	-327.68
	68	0.69	-1.89813E-001	-2.38009E-001	-2.13911E-001	2.31327E-007	-1.75795E-007	4.07122E-007	-2.39000E-001	3.81039E-004	7	..........a	-327.68
	69	0.7	-1.87809E-001	-2.36058E-001	-2.11933E-001	2.29327E-007	-1.70228E-007	3.99554E-007	-2.37000E-001	3.81039E-004	7	..........a	-327.68
	70	0.71	-1.85838E-001	-2.34044E-001	-2.09941E-001	2.28727E-007	-1.67861E-007	3.96587E-007	-2.35000E-001	3.97706E-004	7	..........a	-327.68
	71	0.72	-1.83768E-001	-2.31969E-001	-2.07868E-001	2.28593E-007	-1.65194E-007	3.93787E-007	-2.33000E-001	4.14373E-004	7	..........a	-327.68
	72	0.73	-1.81793E-001	-2.30013E-001	-2.05903E-001	2.27926E-007	-1.60593E-007	3.88520E-007	-2.31000E-001	3.99373E-004	7	..........a	-327.68
	73	0.74	-1.79814E-001	-2.28021E-001	-2.03918E-001	2.26226E-007	-1.58360E-007	3.84586E-007	-2.29000E-001	3.92706E-004	7	..........a	-327.68
	74	0.75	-1.77783E-001	-2.26051E-001	-2.01917E-001	2.25059E-007	-1.54992E-007	3.80052E-007	-2.27000E-001	3.86039E-004	7	..........a	-327.68
	75	0.76	-1.75768E-001	-2.24004E-001	-1.99886E-001	2.22559E-007	-1.53892E-007	3.76451E-007	-2.25000E-001	4.01039E-004	7	..........a	-327.68
	76	0.77	-1.73811E-001	-2.21999E-001	-1.97905E-001	2.24993E-007	-1.54992E-007	3.79985E-007	-2.23000E-001	4.11039E-004	7	..........a	-327.68
	77	0.78	-1.71844E-001	-2.20038E-001	-1.95941E-001	2.25859E-007	-1.52859E-007	3.78718E-007	-2.21000E-001	4.07706E-004	7	..........a	-327.68
	78	0.79	-1.69814E-001	-2.18041E-001	-1.93928E-001	2.22759E-007	-1.51492E-007	3.74251E-007	-2.19000E-001	3.97706E-004	7	..........a	-327.68
	79	0.8	-1.67836E-001	-2.15936E-001	-1.91886E-001	2.22892E-007	-1.48258E-007	3.71151E-007	-2.17000E-001	3.96039E-004	7	..........a	-327.68
	80	0.81	-1.65828E-001	-2.13981E-001	-1.89904E-001	2.20759E-007	-1.46325E-007	3.67083E-007	-2.15000E-001	4.27706E-004	7	..........a	-327.68
	81	0.82	-1.63804E-001	-2.12029E-001	-1.87917E-001	2.21726E-007	-1.42591E-007	3.64316E-007	-2.13000E-001	3.74373E-004	7	..........a	-327.68
	82	0.83	-1.61833E-001	-2.10064E-001	-1.85948E-001	2.21892E-007	-1.40324E-007	3.62216E-007	-2.11000E-001	3.77706E-004	7	..........a	-327.68
	83	0.84	-1.59776E-001	-2.07981E-001	-1.83878E-001	2.17625E-007	-1.41657E-007	3.59282E-007	-2.09000E-001	3.87706E-004	7	..........a	-327.68
	84	0.85	-1.57783E-001	-2.05981E-001	-1.81882E-001	2.21726E-007	-1.41091E-007	3.62816E-007	-2.07000E-001	4.09373E-004	7	..........a	-327.68
	85	0.86	-1.55809E-001	-2.04041E-001	-1.79925E-001	2.18525E-007	-1.41157E-007	3.59682E-007	-2.05000E-001	4.09373E-004	7	..........a	-327.68
	86	0.87	-1.53826E-001	-2.02036E-001	-1.77931E-001	2.21692E-007	-1.41057E-007	3.62749E-007	-2.03000E-001	3.79373E-004	7	..........a	-327.68
	87	0.88	-1.51794E-001	-1.99999E-001	-1.75897E-001	2.21959E-007	-1.40690E-007	3.62649E-007	-2.01000E-001	3.87706E-004	7	..........a	-327.68
	88	0.89	-1.49838E-001	-1.98028E-001	-1.73933E-001	2.21192E-007	-1.41557E-007	3.62749E-007	-1.99000E-001	3.69373E-004	7	..........a	-327.68
	89	0.9	-1.47853E-001	-1.96029E-001	-1.71941E-001	2.21126E-007	-1.39290E-007	3.60416E-007	-1.97000E-001	3.92706E-004	7	..........a	-327.68
	90	0.91	-1.45831E-001	-1.94061E-001	-1.69946E-001	2.18358E-007	-1.38290E-007	3.56649E-007	-1.95000E-001	3.87706E-004	7	..........a	-327.68
	91	0.92	-1.43839E-001	-1.91969E-001	-1.67904E-001	2.19325E-007	-1.37690E-007	3.57015E-007	-1.93000E-001	4.04373E-004	7	..........a	-327.68
	92	0.93	-1.41853E-001	-1.89996E-001	-1.65924E-001	2.16692E-007	-1.36023E-007	3.52715E-007	-1.91000E-001	4.12706E-004	7	..........a	-327.68
	93	0.94	-1.39828E-001	-1.88048E-001	-1.63938E-001	2.19192E-007	-1.38724E-007	3.57915E-007	-1.89000E-001	3.91039E-004	7	..........a	-327.68
	94	0.95	-1.37774E-001	-1.86043E-001	-1.61908E-001	2.19692E-007	-1.37123E-007	3.56815E-007	-1.87000E-001	3.97706E-004	7	..........a	-327.68
	95	0.96	-1.35781E-001	-1.83941E-001	-1.59861E-001	2.16092E-007	-1.36023E-007	3.52115E-007	-1.85000E-001	4.31039E-004	7	..........a	-327.68
	96	0.97	-1.33821E-001	-1.81988E-001	-1.57904E-001	2.17025E-007	-1.36890E-007	3.53915E-007	-1.83000E-001	3.87706E-004	7	..........a	-327.68
	97	0.98	-1.31824E-001	-1.80026E-001	-1.55925E-001	2.19159E-007	-1.36990E-007	3.56149E-007	-1.81000E-001	3.74373E-004	7	..........a	-327.68
	98	0.99	-1.29804E-001	-1.78036E-001	-1.53920E-001	2.16692E-007	-1.38157E-007	3.54848E-007	-1.79000E-001	4.02706E-004	7	..........a	-327.68
	99	1	-1.27808E-001	-1.75954E-001	-1.51881E-001	2.18058E-007	-1.38423E-007	3.56482E-007	-1.77000E-001	3.79373E-004	7	..........a	-327.68
	100	1.01	-1.25796E-001	-1.74009E-001	-1.49903E-001	2.16158E-007	-1.37523E-007	3.53682E-007	-1.75000E-001	3.92706E-004	7	..........a	-327.68
