EXPLAIN
TAG	SQUARE_WAVE
TITLE	LABEL	Square Wave Voltammetry	Test Identifier
DATE	LABEL	8/25/2020	Date
TIME	LABEL	15:00:50	Time
NOTES	NOTES	1	Notes...
	
PSTAT	PSTAT	REF600-24079	Potentiostat
VINIT	QUANT	-3.50000E-001	Initial E (V)
VFINAL	QUANT	-1.50000E-001	Final E (V)
STEPSIZE	QUANT	2.00000E+000	Step Size (mV)
TIMERRES	QUANT	3.33340E-005	&Timer Resolution
FREQUENCY	QUANT	1.00000E+001	Frequency (Hz)
PULSESIZE	QUANT	2.50000E+001	Pulse Size E (mV)
PULSEON	QUANT	1.00000E-001	Pulse &Time (s)
NOISEREJECT	TOGGLE	F	Noise Rejection
AREA	QUANT	2.00000E-002	Sample Area (cm^2)
IMODE	SELECTOR	1	I/E Range Mode
IRANGE	QUANT	1.00000E-003	Max Current (mA)
EQDELAY	IQUANT	10	Equil. Time (s)
IRCOMP	SELECTOR	0	IRComp
PFCOR	QUANT	5.00000E+001	PF Corr. (ohm)
CYCLES	IQUANT	101	C&ycles (#)
ELECTRODETYPE	SELECTOR	0	Electrode Type
STRIPPING	TOGGLE	F	Used for Stripping
POLARITY	TOGGLE	F	Signal Polarity
LINEFREQ	IQUANT	60	Line Frequency (Hz)
INTPERIOD	QUANT	3.3334E-005	Integration Period (s)
SEQUENCER	TOGGLE	TRUE	Run as Sequence
PSTATMODEL	IQUANT	4	Pstat Model
PSTATSECTION	LABEL	REF600-24079	Pstat Section
PSTATSERIALNO	LABEL	24079	Pstat Serial Number
CTRLMODE	IQUANT	1	Control Mode
ELECTROMETER	IQUANT	0	RE=0 or CS=1
IESTAB	IQUANT	2	I/E Stability
CASPEED	IQUANT	6	Control Amp Speed
CONVENTION	IQUANT	1	Current Convention
ICHRANGE	IQUANT	2	Ich Range
ICHRANGEMODE	TOGGLE	F	Ich Auto Range
ICHOFFSETENABLE	TOGGLE	F	Ich Offset Enable
ICHOFFSET	QUANT	0	Ich Offset (V)
ICHFILTER	IQUANT	2	Ich Filter
VCHRANGE	IQUANT	2	Vch Range
VCHRANGEMODE	TOGGLE	F	Vch Auto Range
VCHOFFSETENABLE	TOGGLE	F	Vch Offset Enable
VCHOFFSET	QUANT	0	Vch Offset (V)
VCHFILTER	IQUANT	2	Vch Filter
ACHRANGE	IQUANT	2	Ach Range
ACHOFFSETENABLE	TOGGLE	F	Ach Offset Enable
ACHOFFSET	QUANT	0	Ach Offset (V)
ACHFILTER	IQUANT	1	Ach Filter
IERANGELOWERLIMIT	IQUANT	1	I/E Range Lower Limit
IERANGEMODE	TOGGLE	F	I/E AutoRange
IERANGE	IQUANT	6	I/E Range
POSFEEDENABLE	TOGGLE	F	Positive Feedback IR Comp
POSFEEDRESISTANCE	QUANT	0	Positive Feedback Resistance (ohm)
ACHSELECT	IQUANT	0	Ach Select
SENSECABLEID	IQUANT	13	Sense Cable ID
PWRCABLEID	IQUANT	13	Power Cable ID
DCCALDATE	LABEL	6/30/2020	DC Calibration Date
ACCALDATE	LABEL	6/30/2020	AC Calibration Date
THERMOSELECT	IQUANT	1	Thermo Select
FRAMEWORKVERSION	LABEL	7.8.2	Framework Version
INSTRUMENTVERSION	LABEL	4.40	Instrument Version
CURVE	TABLE	101
	Pt	T	Vfwd	Vrev	Vstep	Ifwd	Irev	Idif	Sig	Ach	IERange	Over	Temp
	#	s	V	V	V	A	A	A	V	V	#	bits	deg C
	0	0.1	-3.24991E-001	-3.74957E-001	-3.49974E-001	-1.43722E-008	-4.43981E-008	3.00258E-008	-3.75000E-001	3.53706E-004	6	..........a	-327.68
	1	0.2	-3.22935E-001	-3.72991E-001	-3.47963E-001	-3.84691E-009	-4.00152E-008	3.61683E-008	-3.73000E-001	3.49873E-004	6	..........a	-327.68
	2	0.3	-3.20969E-001	-3.70844E-001	-3.45906E-001	-1.47394E-009	-3.81183E-008	3.66443E-008	-3.71000E-001	3.35539E-004	6	..........a	-327.68
	3	0.4	-3.18944E-001	-3.69058E-001	-3.44001E-001	-1.47102E-010	-3.68658E-008	3.67187E-008	-3.69000E-001	3.37873E-004	6	..........a	-327.68
	4	0.5	-3.16993E-001	-3.67010E-001	-3.42001E-001	9.26701E-010	-3.60470E-008	3.69737E-008	-3.67000E-001	3.38039E-004	6	..........a	-327.68
	5	0.6	-3.14928E-001	-3.65013E-001	-3.39970E-001	1.67246E-009	-3.49915E-008	3.66640E-008	-3.65000E-001	3.12539E-004	6	..........a	-327.68
	6	0.7	-3.13017E-001	-3.62876E-001	-3.37946E-001	2.44356E-009	-3.46298E-008	3.70734E-008	-3.63000E-001	3.12539E-004	6	..........a	-327.68
	7	0.8	-3.10965E-001	-3.61017E-001	-3.35991E-001	3.06531E-009	-3.39891E-008	3.70544E-008	-3.61000E-001	3.31039E-004	6	..........a	-327.68
	8	0.9	-3.09000E-001	-3.58969E-001	-3.33985E-001	3.65772E-009	-3.33583E-008	3.70160E-008	-3.59000E-001	3.22039E-004	6	..........a	-327.68
	9	1	-3.06902E-001	-3.57036E-001	-3.31969E-001	4.61784E-009	-3.31836E-008	3.78015E-008	-3.57000E-001	3.07873E-004	6	..........a	-327.68
	10	1.1	-3.05044E-001	-3.54923E-001	-3.29983E-001	5.28492E-009	-3.27676E-008	3.80525E-008	-3.55000E-001	3.20206E-004	6	..........a	-327.68
	11	1.2	-3.02980E-001	-3.53026E-001	-3.28003E-001	5.95867E-009	-3.24862E-008	3.84449E-008	-3.53000E-001	3.13039E-004	6	..........a	-327.68
	12	1.3	-3.01026E-001	-3.50970E-001	-3.25998E-001	6.77745E-009	-3.20338E-008	3.88113E-008	-3.51000E-001	3.29873E-004	6	..........a	-327.68
	13	1.4	-2.98932E-001	-3.49005E-001	-3.23969E-001	7.60255E-009	-3.17858E-008	3.93883E-008	-3.49000E-001	3.12206E-004	6	..........a	-327.68
	14	1.5	-2.97010E-001	-3.46946E-001	-3.21978E-001	8.67502E-009	-3.17125E-008	4.03875E-008	-3.47000E-001	3.11873E-004	6	..........a	-327.68
	15	1.6	-2.94977E-001	-3.45074E-001	-3.20025E-001	9.52613E-009	-3.16981E-008	4.12242E-008	-3.45000E-001	3.27873E-004	6	..........a	-327.68
	16	1.7	-2.92907E-001	-3.42982E-001	-3.17944E-001	1.05093E-008	-3.16794E-008	4.21887E-008	-3.43000E-001	3.16539E-004	6	..........a	-327.68
	17	1.8	-2.90867E-001	-3.41005E-001	-3.15936E-001	1.16971E-008	-3.17335E-008	4.34305E-008	-3.41000E-001	3.12706E-004	6	..........a	-327.68
	18	1.9	-2.89024E-001	-3.38903E-001	-3.13963E-001	1.29682E-008	-3.20798E-008	4.50481E-008	-3.39000E-001	3.05039E-004	6	..........a	-327.68
	19	2	-2.86978E-001	-3.37009E-001	-3.11994E-001	1.42704E-008	-3.19018E-008	4.61722E-008	-3.37000E-001	3.24539E-004	6	..........a	-327.68
	20	2.1	-2.84966E-001	-3.34975E-001	-3.09970E-001	1.56756E-008	-3.25062E-008	4.81818E-008	-3.35000E-001	3.25373E-004	6	..........a	-327.68
	21	2.2	-2.82880E-001	-3.33007E-001	-3.07943E-001	1.70131E-008	-3.28013E-008	4.98143E-008	-3.33000E-001	3.20706E-004	6	..........a	-327.68
	22	2.3	-2.81041E-001	-3.30905E-001	-3.05973E-001	1.83656E-008	-3.33453E-008	5.17109E-008	-3.31000E-001	3.20039E-004	6	..........a	-327.68
	23	2.4	-2.78982E-001	-3.29019E-001	-3.04000E-001	2.03458E-008	-3.40664E-008	5.44123E-008	-3.29000E-001	3.26039E-004	6	..........a	-327.68
	24	2.5	-2.77011E-001	-3.26974E-001	-3.01993E-001	2.19180E-008	-3.45121E-008	5.64302E-008	-3.27000E-001	3.24373E-004	6	..........a	-327.68
	25	2.6	-2.74928E-001	-3.24994E-001	-2.99961E-001	2.36586E-008	-3.52542E-008	5.89128E-008	-3.25000E-001	3.29873E-004	6	..........a	-327.68
	26	2.7	-2.73002E-001	-3.22938E-001	-2.97970E-001	2.55848E-008	-3.62720E-008	6.18569E-008	-3.23000E-001	3.31706E-004	6	..........a	-327.68
	27	2.8	-2.70964E-001	-3.20979E-001	-2.95971E-001	2.74061E-008	-3.73575E-008	6.47636E-008	-3.21000E-001	3.37373E-004	6	..........a	-327.68
	28	2.9	-2.68979E-001	-3.18969E-001	-2.93974E-001	2.94277E-008	-3.84370E-008	6.78646E-008	-3.19000E-001	3.37706E-004	6	..........a	-327.68
	29	3	-2.66827E-001	-3.16957E-001	-2.91892E-001	3.12529E-008	-3.98148E-008	7.10677E-008	-3.17000E-001	3.36706E-004	6	..........a	-327.68
	30	3.1	-2.65065E-001	-3.14928E-001	-2.89996E-001	3.31238E-008	-4.11497E-008	7.42735E-008	-3.15000E-001	3.57373E-004	6	..........a	-327.68
	31	3.2	-2.62958E-001	-3.13015E-001	-2.87986E-001	3.51147E-008	-4.23795E-008	7.74942E-008	-3.13000E-001	3.46706E-004	6	..........a	-327.68
	32	3.3	-2.60974E-001	-3.10943E-001	-2.85958E-001	3.67496E-008	-4.39073E-008	8.06569E-008	-3.11000E-001	3.47206E-004	6	..........a	-327.68
	33	3.4	-2.58888E-001	-3.08993E-001	-2.83940E-001	3.83965E-008	-4.52945E-008	8.36910E-008	-3.09000E-001	3.47873E-004	6	..........a	-327.68
	34	3.5	-2.57015E-001	-3.06911E-001	-2.81963E-001	3.99637E-008	-4.70127E-008	8.69764E-008	-3.07000E-001	3.50706E-004	6	..........a	-327.68
	35	3.6	-2.54977E-001	-3.05039E-001	-2.80008E-001	4.15149E-008	-4.84562E-008	8.99711E-008	-3.05000E-001	3.54539E-004	6	..........a	-327.68
	36	3.7	-2.53008E-001	-3.02971E-001	-2.77990E-001	4.26700E-008	-5.03452E-008	9.30152E-008	-3.03000E-001	3.47206E-004	6	..........a	-327.68
	37	3.8	-2.50904E-001	-3.01021E-001	-2.75963E-001	4.36558E-008	-5.18790E-008	9.55348E-008	-3.01000E-001	3.51373E-004	6	..........a	-327.68
	38	3.9	-2.49005E-001	-2.98938E-001	-2.73971E-001	4.45206E-008	-5.35676E-008	9.80882E-008	-2.99000E-001	3.57873E-004	6	..........a	-327.68
	39	4	-2.46962E-001	-2.96965E-001	-2.71963E-001	4.50320E-008	-5.49231E-008	9.99550E-008	-2.97000E-001	3.48206E-004	6	..........a	-327.68
	40	4.1	-2.44977E-001	-2.94915E-001	-2.69946E-001	4.54580E-008	-5.63263E-008	1.01784E-007	-2.95000E-001	3.61039E-004	6	..........a	-327.68
	41	4.2	-2.42840E-001	-2.92982E-001	-2.67911E-001	4.57191E-008	-5.76588E-008	1.03378E-007	-2.93000E-001	3.56206E-004	6	..........a	-327.68
	42	4.3	-2.41060E-001	-2.90872E-001	-2.65966E-001	4.56574E-008	-5.89313E-008	1.04589E-007	-2.91000E-001	3.60206E-004	6	..........a	-327.68
	43	4.4	-2.38958E-001	-2.89007E-001	-2.63982E-001	4.51150E-008	-5.98160E-008	1.04931E-007	-2.89000E-001	3.57873E-004	6	..........a	-327.68
	44	4.5	-2.36994E-001	-2.86940E-001	-2.61967E-001	4.49420E-008	-6.09122E-008	1.05854E-007	-2.87000E-001	3.50539E-004	6	..........a	-327.68
	45	4.6	-2.34864E-001	-2.85021E-001	-2.59943E-001	4.43309E-008	-6.13846E-008	1.05715E-007	-2.85000E-001	3.38373E-004	6	..........a	-327.68
	46	4.7	-2.33010E-001	-2.82894E-001	-2.57952E-001	4.33668E-008	-6.17593E-008	1.05126E-007	-2.83000E-001	3.57706E-004	6	..........a	-327.68
	47	4.8	-2.30949E-001	-2.81062E-001	-2.56005E-001	4.24473E-008	-6.21223E-008	1.04570E-007	-2.81000E-001	3.61206E-004	6	..........a	-327.68
	48	4.9	-2.28988E-001	-2.78936E-001	-2.53962E-001	4.14712E-008	-6.18616E-008	1.03333E-007	-2.79000E-001	3.57706E-004	6	..........a	-327.68
	49	5	-2.26893E-001	-2.76998E-001	-2.51945E-001	4.03757E-008	-6.14196E-008	1.01795E-007	-2.77000E-001	3.59873E-004	6	..........a	-327.68
	50	5.1	-2.25004E-001	-2.74922E-001	-2.49963E-001	3.90819E-008	-6.08202E-008	9.99020E-008	-2.75000E-001	3.52206E-004	6	..........a	-327.68
	51	5.2	-2.22949E-001	-2.72961E-001	-2.47955E-001	3.76727E-008	-5.98317E-008	9.75044E-008	-2.73000E-001	3.56873E-004	6	..........a	-327.68
	52	5.3	-2.20983E-001	-2.70916E-001	-2.45950E-001	3.64172E-008	-5.86512E-008	9.50684E-008	-2.71000E-001	3.63373E-004	6	..........a	-327.68
	53	5.4	-2.18933E-001	-2.68961E-001	-2.43947E-001	3.50020E-008	-5.77188E-008	9.27208E-008	-2.69000E-001	3.48373E-004	6	..........a	-327.68
	54	5.5	-2.17089E-001	-2.66831E-001	-2.41960E-001	3.38926E-008	-5.60786E-008	8.99711E-008	-2.67000E-001	3.64206E-004	6	..........a	-327.68
	55	5.6	-2.14959E-001	-2.65053E-001	-2.40006E-001	3.23734E-008	-5.43260E-008	8.66994E-008	-2.65000E-001	3.53039E-004	6	..........a	-327.68
	56	5.7	-2.12989E-001	-2.62935E-001	-2.37962E-001	3.13706E-008	-5.22977E-008	8.36683E-008	-2.63000E-001	3.45706E-004	6	..........a	-327.68
	57	5.8	-2.10891E-001	-2.60995E-001	-2.35943E-001	2.98100E-008	-5.07372E-008	8.05473E-008	-2.61000E-001	3.36206E-004	6	..........a	-327.68
	58	5.9	-2.09000E-001	-2.58892E-001	-2.33946E-001	2.83809E-008	-4.85116E-008	7.68925E-008	-2.59000E-001	3.29873E-004	6	..........a	-327.68
	59	6	-2.06953E-001	-2.56996E-001	-2.31974E-001	2.72851E-008	-4.66567E-008	7.39417E-008	-2.57000E-001	3.32706E-004	6	..........a	-327.68
	60	6.1	-2.04988E-001	-2.54965E-001	-2.29976E-001	2.59776E-008	-4.45338E-008	7.05113E-008	-2.55000E-001	3.36539E-004	6	..........a	-327.68
	61	6.2	-2.02895E-001	-2.53022E-001	-2.27958E-001	2.51131E-008	-4.22695E-008	6.73826E-008	-2.53000E-001	3.35873E-004	6	..........a	-327.68
	62	6.3	-2.01022E-001	-2.50914E-001	-2.25968E-001	2.40620E-008	-4.03405E-008	6.44025E-008	-2.51000E-001	3.30873E-004	6	..........a	-327.68
	63	6.4	-1.98973E-001	-2.48987E-001	-2.23980E-001	2.29325E-008	-3.83266E-008	6.12591E-008	-2.49000E-001	3.23873E-004	6	..........a	-327.68
	64	6.5	-1.96986E-001	-2.46966E-001	-2.21976E-001	2.20224E-008	-3.61493E-008	5.81717E-008	-2.47000E-001	3.20373E-004	6	..........a	-327.68
	65	6.6	-1.94934E-001	-2.44972E-001	-2.19953E-001	2.11539E-008	-3.42754E-008	5.54294E-008	-2.45000E-001	3.16706E-004	6	..........a	-327.68
	66	6.7	-1.92984E-001	-2.42852E-001	-2.17918E-001	2.04915E-008	-3.24479E-008	5.29394E-008	-2.43000E-001	3.21706E-004	6	..........a	-327.68
	67	6.8	-1.90982E-001	-2.41070E-001	-2.16026E-001	1.97428E-008	-3.06807E-008	5.04234E-008	-2.41000E-001	3.12373E-004	6	..........a	-327.68
	68	6.9	-1.88968E-001	-2.38984E-001	-2.13976E-001	1.91143E-008	-2.90478E-008	4.81621E-008	-2.39000E-001	3.19373E-004	6	..........a	-327.68
	69	7	-1.86888E-001	-2.36975E-001	-2.11932E-001	1.84013E-008	-2.76079E-008	4.60092E-008	-2.37000E-001	3.20873E-004	6	..........a	-327.68
	70	7.1	-1.84990E-001	-2.34877E-001	-2.09933E-001	1.77938E-008	-2.60277E-008	4.38216E-008	-2.35000E-001	3.12539E-004	6	..........a	-327.68
	71	7.2	-1.82970E-001	-2.33009E-001	-2.07989E-001	1.74475E-008	-2.45829E-008	4.20303E-008	-2.33000E-001	3.21039E-004	6	..........a	-327.68
	72	7.3	-1.80966E-001	-2.30948E-001	-2.05957E-001	1.69261E-008	-2.34997E-008	4.04258E-008	-2.31000E-001	3.25873E-004	6	..........a	-327.68
	73	7.4	-1.78869E-001	-2.29015E-001	-2.03942E-001	1.64033E-008	-2.23693E-008	3.87726E-008	-2.29000E-001	3.34039E-004	6	..........a	-327.68
	74	7.5	-1.76968E-001	-2.26897E-001	-2.01933E-001	1.62720E-008	-2.14815E-008	3.77535E-008	-2.27000E-001	3.22039E-004	6	..........a	-327.68
	75	7.6	-1.74966E-001	-2.25004E-001	-1.99985E-001	1.57466E-008	-2.06744E-008	3.64210E-008	-2.25000E-001	3.21206E-004	6	..........a	-327.68
	76	7.7	-1.72989E-001	-2.22940E-001	-1.97964E-001	1.54092E-008	-1.97803E-008	3.51895E-008	-2.23000E-001	3.31706E-004	6	..........a	-327.68
	77	7.8	-1.70904E-001	-2.20967E-001	-1.95936E-001	1.53392E-008	-1.89308E-008	3.42700E-008	-2.21000E-001	3.24206E-004	6	..........a	-327.68
	78	7.9	-1.68980E-001	-2.18928E-001	-1.93954E-001	1.49425E-008	-1.81391E-008	3.30815E-008	-2.19000E-001	3.29539E-004	6	..........a	-327.68
	79	8	-1.66962E-001	-2.17083E-001	-1.92023E-001	1.45288E-008	-1.75306E-008	3.20594E-008	-2.17000E-001	3.22873E-004	6	..........a	-327.68
	80	8.1	-1.64827E-001	-2.14933E-001	-1.89880E-001	1.43537E-008	-1.71199E-008	3.14737E-008	-2.15000E-001	3.27039E-004	6	..........a	-327.68
	81	8.2	-1.62850E-001	-2.12968E-001	-1.87909E-001	1.43091E-008	-1.64512E-008	3.07602E-008	-2.13000E-001	3.23039E-004	6	..........a	-327.68
	82	8.3	-1.60979E-001	-2.10884E-001	-1.85931E-001	1.43897E-008	-1.60018E-008	3.03915E-008	-2.11000E-001	3.33039E-004	6	..........a	-327.68
	83	8.4	-1.58979E-001	-2.09000E-001	-1.83989E-001	1.41140E-008	-1.55671E-008	2.96811E-008	-2.09000E-001	3.23206E-004	6	..........a	-327.68
	84	8.5	-1.56929E-001	-2.06947E-001	-1.81938E-001	1.41154E-008	-1.50363E-008	2.91517E-008	-2.07000E-001	3.18206E-004	6	..........a	-327.68
	85	8.6	-1.54872E-001	-2.04969E-001	-1.79920E-001	1.38123E-008	-1.47186E-008	2.85310E-008	-2.05000E-001	3.34373E-004	6	..........a	-327.68
	86	8.7	-1.53001E-001	-2.02885E-001	-1.77943E-001	1.41210E-008	-1.42819E-008	2.84029E-008	-2.03000E-001	3.34206E-004	6	..........a	-327.68
	87	8.8	-1.50963E-001	-2.01003E-001	-1.75983E-001	1.36283E-008	-1.40745E-008	2.77029E-008	-2.01000E-001	3.21706E-004	6	..........a	-327.68
	88	8.9	-1.48961E-001	-1.98947E-001	-1.73954E-001	1.37723E-008	-1.38315E-008	2.76038E-008	-1.99000E-001	3.16539E-004	6	..........a	-327.68
	89	9	-1.46909E-001	-1.96991E-001	-1.71950E-001	1.35863E-008	-1.37292E-008	2.73155E-008	-1.97000E-001	3.24373E-004	6	..........a	-327.68
	90	9.1	-1.44962E-001	-1.94921E-001	-1.69942E-001	1.36270E-008	-1.33845E-008	2.70114E-008	-1.95000E-001	3.35206E-004	6	..........a	-327.68
	91	9.2	-1.42967E-001	-1.92972E-001	-1.67969E-001	1.35623E-008	-1.27800E-008	2.63424E-008	-1.93000E-001	3.23206E-004	6	..........a	-327.68
	92	9.3	-1.40972E-001	-1.90959E-001	-1.65965E-001	1.36383E-008	-1.25947E-008	2.62330E-008	-1.91000E-001	3.25706E-004	6	..........a	-327.68
	93	9.4	-1.38819E-001	-1.88964E-001	-1.63892E-001	1.34543E-008	-1.27927E-008	2.62470E-008	-1.89000E-001	3.36373E-004	6	..........a	-327.68
	94	9.5	-1.36986E-001	-1.86871E-001	-1.61929E-001	1.35233E-008	-1.26034E-008	2.61267E-008	-1.87000E-001	3.22539E-004	6	..........a	-327.68
	95	9.6	-1.34961E-001	-1.84994E-001	-1.59977E-001	1.34540E-008	-1.23016E-008	2.57556E-008	-1.85000E-001	3.30706E-004	6	..........a	-327.68
	96	9.7	-1.32928E-001	-1.82946E-001	-1.57937E-001	1.35270E-008	-1.21106E-008	2.56376E-008	-1.83000E-001	3.30206E-004	6	..........a	-327.68
	97	9.8	-1.30861E-001	-1.80944E-001	-1.55903E-001	1.34936E-008	-1.19999E-008	2.54936E-008	-1.81000E-001	3.30039E-004	6	..........a	-327.68
	98	9.9	-1.28951E-001	-1.78875E-001	-1.53913E-001	1.35296E-008	-1.21276E-008	2.56573E-008	-1.79000E-001	3.37539E-004	6	..........a	-327.68
	99	10	-1.26995E-001	-1.76996E-001	-1.51996E-001	1.35360E-008	-1.17559E-008	2.52919E-008	-1.77000E-001	3.35373E-004	6	..........a	-327.68
	100	10.1	-1.24947E-001	-1.74948E-001	-1.49947E-001	1.35773E-008	-1.16472E-008	2.52245E-008	-1.75000E-001	3.40539E-004	6	..........a	-327.68
