EXPLAIN
TAG	SQUARE_WAVE
TITLE	LABEL	Square Wave Voltammetry	Test Identifier
DATE	LABEL	8/31/2020	Date
TIME	LABEL	14:56:11	Time
NOTES	NOTES	1	Notes...
	
PSTAT	PSTAT	REF600-24079	Potentiostat
VINIT	QUANT	-3.50000E-001	Initial E (V)
VFINAL	QUANT	-1.50000E-001	Final E (V)
STEPSIZE	QUANT	2.00000E+000	Step Size (mV)
TIMERRES	QUANT	3.33340E-005	&Timer Resolution
FREQUENCY	QUANT	1.00000E+002	Frequency (Hz)
PULSESIZE	QUANT	2.50000E+001	Pulse Size E (mV)
PULSEON	QUANT	1.00000E-002	Pulse &Time (s)
NOISEREJECT	TOGGLE	F	Noise Rejection
AREA	QUANT	2.00000E-002	Sample Area (cm^2)
IMODE	SELECTOR	1	I/E Range Mode
IRANGE	QUANT	1.00000E-002	Max Current (mA)
EQDELAY	IQUANT	10	Equil. Time (s)
IRCOMP	SELECTOR	0	IRComp
PFCOR	QUANT	5.00000E+001	PF Corr. (ohm)
CYCLES	IQUANT	101	C&ycles (#)
ELECTRODETYPE	SELECTOR	0	Electrode Type
STRIPPING	TOGGLE	F	Used for Stripping
POLARITY	TOGGLE	F	Signal Polarity
LINEFREQ	IQUANT	60	Line Frequency (Hz)
INTPERIOD	QUANT	3.3334E-005	Integration Period (s)
SEQUENCER	TOGGLE	TRUE	Run as Sequence
PSTATMODEL	IQUANT	4	Pstat Model
PSTATSECTION	LABEL	REF600-24079	Pstat Section
PSTATSERIALNO	LABEL	24079	Pstat Serial Number
CTRLMODE	IQUANT	1	Control Mode
ELECTROMETER	IQUANT	0	RE=0 or CS=1
IESTAB	IQUANT	2	I/E Stability
CASPEED	IQUANT	6	Control Amp Speed
CONVENTION	IQUANT	1	Current Convention
ICHRANGE	IQUANT	2	Ich Range
ICHRANGEMODE	TOGGLE	F	Ich Auto Range
ICHOFFSETENABLE	TOGGLE	F	Ich Offset Enable
ICHOFFSET	QUANT	0	Ich Offset (V)
ICHFILTER	IQUANT	2	Ich Filter
VCHRANGE	IQUANT	2	Vch Range
VCHRANGEMODE	TOGGLE	F	Vch Auto Range
VCHOFFSETENABLE	TOGGLE	F	Vch Offset Enable
VCHOFFSET	QUANT	0	Vch Offset (V)
VCHFILTER	IQUANT	2	Vch Filter
ACHRANGE	IQUANT	2	Ach Range
ACHOFFSETENABLE	TOGGLE	F	Ach Offset Enable
ACHOFFSET	QUANT	0	Ach Offset (V)
ACHFILTER	IQUANT	1	Ach Filter
IERANGELOWERLIMIT	IQUANT	1	I/E Range Lower Limit
IERANGEMODE	TOGGLE	F	I/E AutoRange
IERANGE	IQUANT	7	I/E Range
POSFEEDENABLE	TOGGLE	F	Positive Feedback IR Comp
POSFEEDRESISTANCE	QUANT	0	Positive Feedback Resistance (ohm)
ACHSELECT	IQUANT	0	Ach Select
SENSECABLEID	IQUANT	13	Sense Cable ID
PWRCABLEID	IQUANT	13	Power Cable ID
DCCALDATE	LABEL	6/30/2020	DC Calibration Date
ACCALDATE	LABEL	6/30/2020	AC Calibration Date
THERMOSELECT	IQUANT	1	Thermo Select
FRAMEWORKVERSION	LABEL	7.8.2	Framework Version
INSTRUMENTVERSION	LABEL	4.40	Instrument Version
CURVE	TABLE	101
	Pt	T	Vfwd	Vrev	Vstep	Ifwd	Irev	Idif	Sig	Ach	IERange	Over	Temp
	#	s	V	V	V	A	A	A	V	V	#	bits	deg C
	0	0.01	-3.24861E-001	-3.74226E-001	-3.49543E-001	-7.04713E-010	-2.97012E-007	2.96307E-007	-3.75000E-001	3.34373E-004	7	..........a	-327.68
	1	0.02	-3.23563E-001	-3.72214E-001	-3.47888E-001	1.92022E-007	-2.57406E-007	4.49428E-007	-3.73000E-001	3.27706E-004	7	..........a	-327.68
	2	0.03	-3.21519E-001	-3.70171E-001	-3.45845E-001	2.09391E-007	-2.48238E-007	4.57629E-007	-3.71000E-001	3.51039E-004	7	..........a	-327.68
	3	0.04	-3.19498E-001	-3.68194E-001	-3.43846E-001	2.17992E-007	-2.42171E-007	4.60163E-007	-3.69000E-001	3.27706E-004	7	..........a	-327.68
	4	0.05	-3.17536E-001	-3.66196E-001	-3.41866E-001	2.22292E-007	-2.35203E-007	4.57496E-007	-3.67000E-001	3.36039E-004	7	..........a	-327.68
	5	0.06	-3.15511E-001	-3.64216E-001	-3.39863E-001	2.24759E-007	-2.35003E-007	4.59763E-007	-3.65000E-001	3.59373E-004	7	..........a	-327.68
	6	0.07	-3.13488E-001	-3.62266E-001	-3.37877E-001	2.28927E-007	-2.32203E-007	4.61130E-007	-3.63000E-001	3.27706E-004	7	..........a	-327.68
	7	0.08	-3.11496E-001	-3.60216E-001	-3.35856E-001	2.29660E-007	-2.32036E-007	4.61696E-007	-3.61000E-001	3.24373E-004	7	..........a	-327.68
	8	0.09	-3.09541E-001	-3.58196E-001	-3.33868E-001	2.33161E-007	-2.31636E-007	4.64797E-007	-3.59000E-001	3.47706E-004	7	..........a	-327.68
	9	0.1	-3.07493E-001	-3.56259E-001	-3.31876E-001	2.35694E-007	-2.28536E-007	4.64230E-007	-3.57000E-001	3.54373E-004	7	..........a	-327.68
	10	0.11	-3.05498E-001	-3.54276E-001	-3.29887E-001	2.37294E-007	-2.32236E-007	4.69531E-007	-3.55000E-001	3.27706E-004	7	..........a	-327.68
	11	0.12	-3.03538E-001	-3.52239E-001	-3.27888E-001	2.41895E-007	-2.31136E-007	4.73031E-007	-3.53000E-001	3.61039E-004	7	..........a	-327.68
	12	0.13	-3.01579E-001	-3.50244E-001	-3.25912E-001	2.44829E-007	-2.34237E-007	4.79065E-007	-3.51000E-001	3.11039E-004	7	..........a	-327.68
	13	0.14	-2.99541E-001	-3.48261E-001	-3.23901E-001	2.44895E-007	-2.36437E-007	4.81332E-007	-3.49000E-001	3.44373E-004	7	..........a	-327.68
	14	0.15	-2.97521E-001	-3.46283E-001	-3.21902E-001	2.48029E-007	-2.35937E-007	4.83966E-007	-3.47000E-001	3.52706E-004	7	..........a	-327.68
	15	0.16	-2.95524E-001	-3.44179E-001	-3.19852E-001	2.50663E-007	-2.38370E-007	4.89033E-007	-3.45000E-001	3.36039E-004	7	..........a	-327.68
	16	0.17	-2.93489E-001	-3.42208E-001	-3.17848E-001	2.52296E-007	-2.36737E-007	4.89033E-007	-3.43000E-001	3.44373E-004	7	..........a	-327.68
	17	0.18	-2.91461E-001	-3.40268E-001	-3.15864E-001	2.54530E-007	-2.39171E-007	4.93701E-007	-3.41000E-001	3.36039E-004	7	..........a	-327.68
	18	0.19	-2.89491E-001	-3.38234E-001	-3.13863E-001	2.56497E-007	-2.42404E-007	4.98901E-007	-3.39000E-001	3.37706E-004	7	..........a	-327.68
	19	0.2	-2.87504E-001	-3.36263E-001	-3.11883E-001	2.58197E-007	-2.44871E-007	5.03069E-007	-3.37000E-001	3.12706E-004	7	..........a	-327.68
	20	0.21	-2.85514E-001	-3.34219E-001	-3.09867E-001	2.65032E-007	-2.49672E-007	5.14704E-007	-3.35000E-001	3.52706E-004	7	..........a	-327.68
	21	0.22	-2.83489E-001	-3.32251E-001	-3.07870E-001	2.67732E-007	-2.50805E-007	5.18537E-007	-3.33000E-001	3.57706E-004	7	..........a	-327.68
	22	0.23	-2.81464E-001	-3.30253E-001	-3.05858E-001	2.73166E-007	-2.58373E-007	5.31539E-007	-3.31000E-001	3.46039E-004	7	..........a	-327.68
	23	0.24	-2.79519E-001	-3.28264E-001	-3.03892E-001	2.76600E-007	-2.61640E-007	5.38240E-007	-3.29000E-001	3.41039E-004	7	..........a	-327.68
	24	0.25	-2.77514E-001	-3.26223E-001	-3.01868E-001	2.78267E-007	-2.65607E-007	5.43874E-007	-3.27000E-001	3.59373E-004	7	..........a	-327.68
	25	0.26	-2.75488E-001	-3.24264E-001	-2.99876E-001	2.85201E-007	-2.69641E-007	5.54842E-007	-3.25000E-001	3.34373E-004	7	..........a	-327.68
	26	0.27	-2.73486E-001	-3.22298E-001	-2.97892E-001	2.91702E-007	-2.72775E-007	5.64477E-007	-3.23000E-001	3.36039E-004	7	..........a	-327.68
	27	0.28	-2.71486E-001	-3.20294E-001	-2.95890E-001	2.95436E-007	-2.77076E-007	5.72511E-007	-3.21000E-001	3.34373E-004	7	..........a	-327.68
	28	0.29	-2.69563E-001	-3.18136E-001	-2.93849E-001	3.03237E-007	-2.83877E-007	5.87113E-007	-3.19000E-001	3.74373E-004	7	..........a	-327.68
	29	0.3	-2.67449E-001	-3.16246E-001	-2.91848E-001	3.05837E-007	-2.87644E-007	5.93481E-007	-3.17000E-001	3.22706E-004	7	..........a	-327.68
	30	0.31	-2.65404E-001	-3.14289E-001	-2.89847E-001	3.15238E-007	-2.93511E-007	6.08750E-007	-3.15000E-001	3.32706E-004	7	..........a	-327.68
	31	0.32	-2.63494E-001	-3.12273E-001	-2.87883E-001	3.19606E-007	-2.98845E-007	6.18451E-007	-3.13000E-001	3.64373E-004	7	..........a	-327.68
	32	0.33	-2.61496E-001	-3.10221E-001	-2.85858E-001	3.26607E-007	-3.06846E-007	6.33453E-007	-3.11000E-001	3.47706E-004	7	..........a	-327.68
	33	0.34	-2.59459E-001	-3.08246E-001	-2.83853E-001	3.34574E-007	-3.11180E-007	6.45755E-007	-3.09000E-001	3.47706E-004	7	..........a	-327.68
	34	0.35	-2.57418E-001	-3.06328E-001	-2.81873E-001	3.40142E-007	-3.16114E-007	6.56256E-007	-3.07000E-001	3.51039E-004	7	..........a	-327.68
	35	0.36	-2.55489E-001	-3.04301E-001	-2.79895E-001	3.46909E-007	-3.22882E-007	6.69791E-007	-3.05000E-001	3.52706E-004	7	..........a	-327.68
	36	0.37	-2.53471E-001	-3.02264E-001	-2.77868E-001	3.53344E-007	-3.27383E-007	6.80726E-007	-3.03000E-001	3.52706E-004	7	..........a	-327.68
	37	0.38	-2.51478E-001	-3.00296E-001	-2.75887E-001	3.61811E-007	-3.31783E-007	6.93595E-007	-3.01000E-001	3.44373E-004	7	..........a	-327.68
	38	0.39	-2.49434E-001	-2.98289E-001	-2.73862E-001	3.68112E-007	-3.38217E-007	7.06330E-007	-2.99000E-001	3.77706E-004	7	..........a	-327.68
	39	0.4	-2.47474E-001	-2.96316E-001	-2.71895E-001	3.70112E-007	-3.41384E-007	7.11497E-007	-2.97000E-001	3.56039E-004	7	..........a	-327.68
	40	0.41	-2.45493E-001	-2.94249E-001	-2.69871E-001	3.77547E-007	-3.44552E-007	7.22098E-007	-2.95000E-001	3.47706E-004	7	..........a	-327.68
	41	0.42	-2.43459E-001	-2.92288E-001	-2.67873E-001	3.80281E-007	-3.46052E-007	7.26332E-007	-2.93000E-001	3.14373E-004	7	..........a	-327.68
	42	0.43	-2.41354E-001	-2.90286E-001	-2.65820E-001	3.80481E-007	-3.49186E-007	7.29666E-007	-2.91000E-001	3.44373E-004	7	..........a	-327.68
	43	0.44	-2.39456E-001	-2.88268E-001	-2.63862E-001	3.85715E-007	-3.49586E-007	7.35300E-007	-2.89000E-001	3.46039E-004	7	..........a	-327.68
	44	0.45	-2.37486E-001	-2.86221E-001	-2.61853E-001	3.87282E-007	-3.49852E-007	7.37134E-007	-2.87000E-001	3.31039E-004	7	..........a	-327.68
	45	0.46	-2.35451E-001	-2.84284E-001	-2.59868E-001	3.87748E-007	-3.51186E-007	7.38934E-007	-2.85000E-001	3.46039E-004	7	..........a	-327.68
	46	0.47	-2.33391E-001	-2.82263E-001	-2.57827E-001	3.89482E-007	-3.50552E-007	7.40034E-007	-2.83000E-001	3.71039E-004	7	..........a	-327.68
	47	0.48	-2.31449E-001	-2.80288E-001	-2.55868E-001	3.89482E-007	-3.52019E-007	7.41501E-007	-2.81000E-001	3.37706E-004	7	..........a	-327.68
	48	0.49	-2.29476E-001	-2.78276E-001	-2.53876E-001	3.92416E-007	-3.50752E-007	7.43168E-007	-2.79000E-001	3.54373E-004	7	..........a	-327.68
	49	0.5	-2.27473E-001	-2.76273E-001	-2.51873E-001	3.89982E-007	-3.46418E-007	7.36400E-007	-2.77000E-001	3.26039E-004	7	..........a	-327.68
	50	0.51	-2.25391E-001	-2.74333E-001	-2.49862E-001	3.87382E-007	-3.42885E-007	7.30266E-007	-2.75000E-001	3.44373E-004	7	..........a	-327.68
	51	0.52	-2.23479E-001	-2.72283E-001	-2.47881E-001	3.84648E-007	-3.38517E-007	7.23165E-007	-2.73000E-001	3.76039E-004	7	..........a	-327.68
	52	0.53	-2.21493E-001	-2.70263E-001	-2.45878E-001	3.80247E-007	-3.33983E-007	7.14231E-007	-2.71000E-001	3.46039E-004	7	..........a	-327.68
	53	0.54	-2.19449E-001	-2.68301E-001	-2.43875E-001	3.77947E-007	-3.27816E-007	7.05763E-007	-2.69000E-001	3.24373E-004	7	..........a	-327.68
	54	0.55	-2.17426E-001	-2.66293E-001	-2.41859E-001	3.72213E-007	-3.21682E-007	6.93895E-007	-2.67000E-001	3.34373E-004	7	..........a	-327.68
	55	0.56	-2.15424E-001	-2.64283E-001	-2.39853E-001	3.67879E-007	-3.18081E-007	6.85960E-007	-2.65000E-001	3.54373E-004	7	..........a	-327.68
	56	0.57	-2.13484E-001	-2.62248E-001	-2.37866E-001	3.65979E-007	-3.12114E-007	6.78092E-007	-2.63000E-001	3.24373E-004	7	..........a	-327.68
	57	0.58	-2.11471E-001	-2.60253E-001	-2.35862E-001	3.62345E-007	-3.07780E-007	6.70125E-007	-2.61000E-001	3.76039E-004	7	..........a	-327.68
	58	0.59	-2.09409E-001	-2.58281E-001	-2.33845E-001	3.58144E-007	-3.00879E-007	6.59023E-007	-2.59000E-001	3.36039E-004	7	..........a	-327.68
	59	0.6	-2.07471E-001	-2.56246E-001	-2.31858E-001	3.51510E-007	-2.92011E-007	6.43521E-007	-2.57000E-001	3.47706E-004	7	..........a	-327.68
	60	0.61	-2.05441E-001	-2.54216E-001	-2.29828E-001	3.48009E-007	-2.89611E-007	6.37620E-007	-2.55000E-001	3.41039E-004	7	..........a	-327.68
	61	0.62	-2.03489E-001	-2.52281E-001	-2.27885E-001	3.43676E-007	-2.82610E-007	6.26285E-007	-2.53000E-001	3.77706E-004	7	..........a	-327.68
	62	0.63	-2.01471E-001	-2.50323E-001	-2.25897E-001	3.38108E-007	-2.77676E-007	6.15784E-007	-2.51000E-001	3.59373E-004	7	..........a	-327.68
	63	0.64	-1.99479E-001	-2.48309E-001	-2.23894E-001	3.35541E-007	-2.69808E-007	6.05349E-007	-2.49000E-001	3.67706E-004	7	..........a	-327.68
	64	0.65	-1.97471E-001	-2.46278E-001	-2.21874E-001	3.30707E-007	-2.64074E-007	5.94781E-007	-2.47000E-001	3.47706E-004	7	..........a	-327.68
	65	0.66	-1.95489E-001	-2.44263E-001	-2.19876E-001	3.26373E-007	-2.58306E-007	5.84680E-007	-2.45000E-001	3.31039E-004	7	..........a	-327.68
	66	0.67	-1.93464E-001	-2.42249E-001	-2.17857E-001	3.22539E-007	-2.51506E-007	5.74045E-007	-2.43000E-001	3.47706E-004	7	..........a	-327.68
	67	0.68	-1.91431E-001	-2.40279E-001	-2.15855E-001	3.18672E-007	-2.48772E-007	5.67444E-007	-2.41000E-001	3.27706E-004	7	..........a	-327.68
	68	0.69	-1.89461E-001	-2.38241E-001	-2.13851E-001	3.15138E-007	-2.40704E-007	5.55842E-007	-2.39000E-001	3.71039E-004	7	..........a	-327.68
	69	0.7	-1.87444E-001	-2.36264E-001	-2.11854E-001	3.09971E-007	-2.35470E-007	5.45441E-007	-2.37000E-001	3.44373E-004	7	..........a	-327.68
	70	0.71	-1.85428E-001	-2.34291E-001	-2.09859E-001	3.08271E-007	-2.31736E-007	5.40007E-007	-2.35000E-001	3.46039E-004	7	..........a	-327.68
	71	0.72	-1.83466E-001	-2.32276E-001	-2.07871E-001	3.07271E-007	-2.29102E-007	5.36373E-007	-2.33000E-001	3.54373E-004	7	..........a	-327.68
	72	0.73	-1.81459E-001	-2.30241E-001	-2.05850E-001	3.04737E-007	-2.27402E-007	5.32139E-007	-2.31000E-001	3.19373E-004	7	..........a	-327.68
	73	0.74	-1.79438E-001	-2.28273E-001	-2.03855E-001	3.05370E-007	-2.22702E-007	5.28072E-007	-2.29000E-001	3.71039E-004	7	..........a	-327.68
	74	0.75	-1.77408E-001	-2.26306E-001	-2.01857E-001	3.00736E-007	-2.19568E-007	5.20304E-007	-2.27000E-001	3.36039E-004	7	..........a	-327.68
	75	0.76	-1.75468E-001	-2.24281E-001	-1.99874E-001	3.00336E-007	-2.15801E-007	5.16137E-007	-2.25000E-001	3.71039E-004	7	..........a	-327.68
	76	0.77	-1.73481E-001	-2.22269E-001	-1.97875E-001	2.97803E-007	-2.13200E-007	5.11003E-007	-2.23000E-001	3.31039E-004	7	..........a	-327.68
	77	0.78	-1.71458E-001	-2.20264E-001	-1.95861E-001	2.94536E-007	-2.10133E-007	5.04669E-007	-2.21000E-001	3.41039E-004	7	..........a	-327.68
	78	0.79	-1.69441E-001	-2.18303E-001	-1.93872E-001	2.94569E-007	-2.07233E-007	5.01802E-007	-2.19000E-001	3.51039E-004	7	..........a	-327.68
	79	0.8	-1.67463E-001	-2.16184E-001	-1.91823E-001	2.89802E-007	-2.05233E-007	4.95034E-007	-2.17000E-001	3.17706E-004	7	..........a	-327.68
	80	0.81	-1.65446E-001	-2.14196E-001	-1.89821E-001	2.91168E-007	-2.02332E-007	4.93501E-007	-2.15000E-001	3.46039E-004	7	..........a	-327.68
	81	0.82	-1.63383E-001	-2.12254E-001	-1.87818E-001	2.91235E-007	-2.02232E-007	4.93467E-007	-2.13000E-001	3.24373E-004	7	..........a	-327.68
	82	0.83	-1.61468E-001	-2.10278E-001	-1.85873E-001	2.90635E-007	-2.01832E-007	4.92467E-007	-2.11000E-001	3.24373E-004	7	..........a	-327.68
	83	0.84	-1.59461E-001	-2.08281E-001	-1.83871E-001	2.89568E-007	-1.99265E-007	4.88833E-007	-2.09000E-001	3.47706E-004	7	..........a	-327.68
	84	0.85	-1.57474E-001	-2.06248E-001	-1.81861E-001	2.88001E-007	-1.96831E-007	4.84833E-007	-2.07000E-001	3.22706E-004	7	..........a	-327.68
	85	0.86	-1.55399E-001	-2.04291E-001	-1.79845E-001	2.86234E-007	-1.94764E-007	4.80999E-007	-2.05000E-001	3.66039E-004	7	..........a	-327.68
	86	0.87	-1.53428E-001	-2.02293E-001	-1.77860E-001	2.86768E-007	-1.95298E-007	4.82066E-007	-2.03000E-001	3.49373E-004	7	..........a	-327.68
	87	0.88	-1.51433E-001	-2.00259E-001	-1.75846E-001	2.85868E-007	-1.95431E-007	4.81299E-007	-2.01000E-001	3.24373E-004	7	..........a	-327.68
	88	0.89	-1.49453E-001	-1.98264E-001	-1.73858E-001	2.85601E-007	-1.94831E-007	4.80432E-007	-1.99000E-001	3.46039E-004	7	..........a	-327.68
	89	0.9	-1.47456E-001	-1.96299E-001	-1.71878E-001	2.84201E-007	-1.92964E-007	4.77165E-007	-1.97000E-001	3.21039E-004	7	..........a	-327.68
	90	0.91	-1.45461E-001	-1.94301E-001	-1.69881E-001	2.84101E-007	-1.91764E-007	4.75865E-007	-1.95000E-001	3.44373E-004	7	..........a	-327.68
	91	0.92	-1.43458E-001	-1.92303E-001	-1.67880E-001	2.82601E-007	-1.90064E-007	4.72664E-007	-1.93000E-001	3.59373E-004	7	..........a	-327.68
	92	0.93	-1.41491E-001	-1.90189E-001	-1.65840E-001	2.82967E-007	-1.90631E-007	4.73598E-007	-1.91000E-001	3.26039E-004	7	..........a	-327.68
	93	0.94	-1.39409E-001	-1.88261E-001	-1.63835E-001	2.84201E-007	-1.88130E-007	4.72331E-007	-1.89000E-001	3.34373E-004	7	..........a	-327.68
	94	0.95	-1.37406E-001	-1.86293E-001	-1.61849E-001	2.82200E-007	-1.88497E-007	4.70697E-007	-1.87000E-001	3.41039E-004	7	..........a	-327.68
	95	0.96	-1.35456E-001	-1.84244E-001	-1.59850E-001	2.83734E-007	-1.88064E-007	4.71798E-007	-1.85000E-001	3.42706E-004	7	..........a	-327.68
	96	0.97	-1.33479E-001	-1.82199E-001	-1.57839E-001	2.84567E-007	-1.87764E-007	4.72331E-007	-1.83000E-001	3.42706E-004	7	..........a	-327.68
	97	0.98	-1.31443E-001	-1.80254E-001	-1.55848E-001	2.82134E-007	-1.90431E-007	4.72564E-007	-1.81000E-001	3.56039E-004	7	..........a	-327.68
	98	0.99	-1.29423E-001	-1.78306E-001	-1.53864E-001	2.84701E-007	-1.89730E-007	4.74431E-007	-1.79000E-001	3.47706E-004	7	..........a	-327.68
	99	1	-1.27461E-001	-1.76258E-001	-1.51859E-001	2.84001E-007	-1.91597E-007	4.75598E-007	-1.77000E-001	3.52706E-004	7	..........a	-327.68
	100	1.01	-1.25479E-001	-1.74244E-001	-1.49862E-001	2.85534E-007	-1.88164E-007	4.73698E-007	-1.75000E-001	3.52706E-004	7	..........a	-327.68
