EXPLAIN
TAG	SQUARE_WAVE
TITLE	LABEL	Square Wave Voltammetry	Test Identifier
DATE	LABEL	8/25/2020	Date
TIME	LABEL	15:05:17	Time
NOTES	NOTES	1	Notes...
	
PSTAT	PSTAT	REF600-24079	Potentiostat
VINIT	QUANT	-3.50000E-001	Initial E (V)
VFINAL	QUANT	-1.50000E-001	Final E (V)
STEPSIZE	QUANT	2.00000E+000	Step Size (mV)
TIMERRES	QUANT	3.33340E-005	&Timer Resolution
FREQUENCY	QUANT	5.00000E+001	Frequency (Hz)
PULSESIZE	QUANT	2.50000E+001	Pulse Size E (mV)
PULSEON	QUANT	2.00000E-002	Pulse &Time (s)
NOISEREJECT	TOGGLE	F	Noise Rejection
AREA	QUANT	2.00000E-002	Sample Area (cm^2)
IMODE	SELECTOR	1	I/E Range Mode
IRANGE	QUANT	1.00000E-003	Max Current (mA)
EQDELAY	IQUANT	10	Equil. Time (s)
IRCOMP	SELECTOR	0	IRComp
PFCOR	QUANT	5.00000E+001	PF Corr. (ohm)
CYCLES	IQUANT	101	C&ycles (#)
ELECTRODETYPE	SELECTOR	0	Electrode Type
STRIPPING	TOGGLE	F	Used for Stripping
POLARITY	TOGGLE	F	Signal Polarity
LINEFREQ	IQUANT	60	Line Frequency (Hz)
INTPERIOD	QUANT	3.3334E-005	Integration Period (s)
SEQUENCER	TOGGLE	TRUE	Run as Sequence
PSTATMODEL	IQUANT	4	Pstat Model
PSTATSECTION	LABEL	REF600-24079	Pstat Section
PSTATSERIALNO	LABEL	24079	Pstat Serial Number
CTRLMODE	IQUANT	1	Control Mode
ELECTROMETER	IQUANT	0	RE=0 or CS=1
IESTAB	IQUANT	2	I/E Stability
CASPEED	IQUANT	6	Control Amp Speed
CONVENTION	IQUANT	1	Current Convention
ICHRANGE	IQUANT	2	Ich Range
ICHRANGEMODE	TOGGLE	F	Ich Auto Range
ICHOFFSETENABLE	TOGGLE	F	Ich Offset Enable
ICHOFFSET	QUANT	0	Ich Offset (V)
ICHFILTER	IQUANT	2	Ich Filter
VCHRANGE	IQUANT	2	Vch Range
VCHRANGEMODE	TOGGLE	F	Vch Auto Range
VCHOFFSETENABLE	TOGGLE	F	Vch Offset Enable
VCHOFFSET	QUANT	0	Vch Offset (V)
VCHFILTER	IQUANT	2	Vch Filter
ACHRANGE	IQUANT	2	Ach Range
ACHOFFSETENABLE	TOGGLE	F	Ach Offset Enable
ACHOFFSET	QUANT	0	Ach Offset (V)
ACHFILTER	IQUANT	1	Ach Filter
IERANGELOWERLIMIT	IQUANT	1	I/E Range Lower Limit
IERANGEMODE	TOGGLE	F	I/E AutoRange
IERANGE	IQUANT	6	I/E Range
POSFEEDENABLE	TOGGLE	F	Positive Feedback IR Comp
POSFEEDRESISTANCE	QUANT	0	Positive Feedback Resistance (ohm)
ACHSELECT	IQUANT	0	Ach Select
SENSECABLEID	IQUANT	13	Sense Cable ID
PWRCABLEID	IQUANT	13	Power Cable ID
DCCALDATE	LABEL	6/30/2020	DC Calibration Date
ACCALDATE	LABEL	6/30/2020	AC Calibration Date
THERMOSELECT	IQUANT	1	Thermo Select
FRAMEWORKVERSION	LABEL	7.8.2	Framework Version
INSTRUMENTVERSION	LABEL	4.40	Instrument Version
CURVE	TABLE	101
	Pt	T	Vfwd	Vrev	Vstep	Ifwd	Irev	Idif	Sig	Ach	IERange	Over	Temp
	#	s	V	V	V	A	A	A	V	V	#	bits	deg C
	0	0.02	-3.24866E-001	-3.74360E-001	-3.49613E-001	-1.14342E-008	1.30913E-006	-1.32056E-006	-3.75000E-001	3.66039E-004	6	..........a	-327.68
	1	0.04	-3.24065E-001	-3.71789E-001	-3.47927E-001	-1.31623E-006	1.22169E-006	-2.53792E-006	-3.73000E-001	3.81873E-004	6	..........a	-327.68
	2	0.06	-3.21944E-001	-3.69787E-001	-3.45866E-001	-1.30481E-006	1.22938E-006	-2.53419E-006	-3.71000E-001	3.62706E-004	6	..........a	-327.68
	3	0.08	-3.19927E-001	-3.67791E-001	-3.43859E-001	-1.30073E-006	1.23279E-006	-2.53353E-006	-3.69000E-001	3.51039E-004	6	..........a	-327.68
	4	0.1	-3.17901E-001	-3.65774E-001	-3.41838E-001	-1.29730E-006	1.23445E-006	-2.53175E-006	-3.67000E-001	3.66039E-004	6	..........a	-327.68
	5	0.12	-3.15891E-001	-3.63788E-001	-3.39839E-001	-1.29418E-006	1.23479E-006	-2.52897E-006	-3.65000E-001	3.52706E-004	6	..........a	-327.68
	6	0.14	-3.13859E-001	-3.61773E-001	-3.37816E-001	-1.29164E-006	1.23549E-006	-2.52713E-006	-3.63000E-001	3.88539E-004	6	..........a	-327.68
	7	0.16	-3.11841E-001	-3.59776E-001	-3.35808E-001	-1.28859E-006	1.23624E-006	-2.52484E-006	-3.61000E-001	3.75206E-004	6	..........a	-327.68
	8	0.18	-3.09796E-001	-3.57782E-001	-3.33789E-001	-1.28712E-006	1.23810E-006	-2.52522E-006	-3.59000E-001	3.85206E-004	6	..........a	-327.68
	9	0.2	-3.07776E-001	-3.55779E-001	-3.31778E-001	-1.28521E-006	1.23775E-006	-2.52297E-006	-3.57000E-001	3.69373E-004	6	..........a	-327.68
	10	0.22	-3.05753E-001	-3.53816E-001	-3.29785E-001	-1.28232E-006	1.23714E-006	-2.51946E-006	-3.55000E-001	3.56873E-004	6	..........a	-327.68
	11	0.24	-3.03738E-001	-3.51833E-001	-3.27786E-001	-1.27911E-006	1.23764E-006	-2.51675E-006	-3.53000E-001	3.73539E-004	6	..........a	-327.68
	12	0.26	-3.01710E-001	-3.49849E-001	-3.25779E-001	-1.27678E-006	1.23760E-006	-2.51438E-006	-3.51000E-001	3.48539E-004	6	..........a	-327.68
	13	0.28	-2.99670E-001	-3.47851E-001	-3.23761E-001	-1.27411E-006	1.23814E-006	-2.51226E-006	-3.49000E-001	3.51873E-004	6	..........a	-327.68
	14	0.3	-2.97645E-001	-3.45848E-001	-3.21746E-001	-1.27153E-006	1.23697E-006	-2.50850E-006	-3.47000E-001	3.65206E-004	6	..........a	-327.68
	15	0.32	-2.95594E-001	-3.43848E-001	-3.19721E-001	-1.26738E-006	1.23664E-006	-2.50402E-006	-3.45000E-001	3.50206E-004	6	..........a	-327.68
	16	0.34	-2.93530E-001	-3.41869E-001	-3.17699E-001	-1.26360E-006	1.23442E-006	-2.49802E-006	-3.43000E-001	3.76039E-004	6	..........a	-327.68
	17	0.36	-2.91498E-001	-3.39874E-001	-3.15686E-001	-1.25972E-006	1.23384E-006	-2.49356E-006	-3.41000E-001	3.93539E-004	6	..........a	-327.68
	18	0.38	-2.89443E-001	-3.37890E-001	-3.13666E-001	-1.25535E-006	1.23352E-006	-2.48888E-006	-3.39000E-001	3.67706E-004	6	..........a	-327.68
	19	0.4	-2.87391E-001	-3.35925E-001	-3.11658E-001	-1.25135E-006	1.23117E-006	-2.48252E-006	-3.37000E-001	3.78539E-004	6	..........a	-327.68
	20	0.42	-2.85361E-001	-3.33942E-001	-3.09651E-001	-1.24626E-006	1.22847E-006	-2.47473E-006	-3.35000E-001	3.78539E-004	6	..........a	-327.68
	21	0.44	-2.83297E-001	-3.31981E-001	-3.07639E-001	-1.23968E-006	1.22647E-006	-2.46615E-006	-3.33000E-001	3.79373E-004	6	..........a	-327.68
	22	0.46	-2.81253E-001	-3.29994E-001	-3.05623E-001	-1.23483E-006	1.22415E-006	-2.45898E-006	-3.31000E-001	3.72706E-004	6	..........a	-327.68
	23	0.48	-2.79193E-001	-3.28041E-001	-3.03617E-001	-1.22847E-006	1.22186E-006	-2.45034E-006	-3.29000E-001	3.75206E-004	6	..........a	-327.68
	24	0.5	-2.77142E-001	-3.26099E-001	-3.01621E-001	-1.22232E-006	1.21792E-006	-2.44024E-006	-3.27000E-001	3.86039E-004	6	..........a	-327.68
	25	0.52	-2.75129E-001	-3.24107E-001	-2.99618E-001	-1.21503E-006	1.21368E-006	-2.42871E-006	-3.25000E-001	3.71039E-004	6	..........a	-327.68
	26	0.54	-2.73044E-001	-3.22125E-001	-2.97584E-001	-1.20676E-006	1.20801E-006	-2.41477E-006	-3.23000E-001	3.90206E-004	6	..........a	-327.68
	27	0.56	-2.71017E-001	-3.20169E-001	-2.95593E-001	-1.20076E-006	1.20398E-006	-2.40473E-006	-3.21000E-001	3.75206E-004	6	..........a	-327.68
	28	0.58	-2.68940E-001	-3.18187E-001	-2.93563E-001	-1.19278E-006	1.19842E-006	-2.39121E-006	-3.19000E-001	3.71873E-004	6	..........a	-327.68
	29	0.6	-2.66900E-001	-3.16217E-001	-2.91558E-001	-1.18649E-006	1.19225E-006	-2.37874E-006	-3.17000E-001	3.67706E-004	6	..........a	-327.68
	30	0.62	-2.64841E-001	-3.14230E-001	-2.89535E-001	-1.17772E-006	1.18642E-006	-2.36414E-006	-3.15000E-001	3.81873E-004	6	..........a	-327.68
	31	0.64	-2.62770E-001	-3.12277E-001	-2.87523E-001	-1.16864E-006	1.17867E-006	-2.34731E-006	-3.13000E-001	3.66039E-004	6	..........a	-327.68
	32	0.66	-2.60730E-001	-3.10328E-001	-2.85529E-001	-1.16233E-006	1.17116E-006	-2.33349E-006	-3.11000E-001	3.90206E-004	6	..........a	-327.68
	33	0.68	-2.58675E-001	-3.08348E-001	-2.83511E-001	-1.15524E-006	1.16558E-006	-2.32082E-006	-3.09000E-001	3.68539E-004	6	..........a	-327.68
	34	0.7	-2.56662E-001	-3.06402E-001	-2.81532E-001	-1.14869E-006	1.15756E-006	-2.30625E-006	-3.07000E-001	3.76039E-004	6	..........a	-327.68
	35	0.72	-2.54615E-001	-3.04428E-001	-2.79521E-001	-1.14181E-006	1.14929E-006	-2.29111E-006	-3.05000E-001	3.77706E-004	6	..........a	-327.68
	36	0.74	-2.52618E-001	-3.02476E-001	-2.77547E-001	-1.13555E-006	1.14040E-006	-2.27595E-006	-3.03000E-001	3.77706E-004	6	..........a	-327.68
	37	0.76	-2.50571E-001	-3.00488E-001	-2.75529E-001	-1.13017E-006	1.13357E-006	-2.26374E-006	-3.01000E-001	3.81039E-004	6	..........a	-327.68
	38	0.78	-2.48539E-001	-2.98512E-001	-2.73526E-001	-1.12652E-006	1.12646E-006	-2.25299E-006	-2.99000E-001	3.63539E-004	6	..........a	-327.68
	39	0.8	-2.46521E-001	-2.96529E-001	-2.71525E-001	-1.12357E-006	1.11869E-006	-2.24226E-006	-2.97000E-001	3.63539E-004	6	..........a	-327.68
	40	0.82	-2.44484E-001	-2.94536E-001	-2.69510E-001	-1.12052E-006	1.11088E-006	-2.23140E-006	-2.95000E-001	3.83539E-004	6	..........a	-327.68
	41	0.84	-2.42465E-001	-2.92546E-001	-2.67506E-001	-1.11793E-006	1.10364E-006	-2.22157E-006	-2.93000E-001	3.74373E-004	6	..........a	-327.68
	42	0.86	-2.40453E-001	-2.90548E-001	-2.65501E-001	-1.11730E-006	1.09836E-006	-2.21567E-006	-2.91000E-001	3.71039E-004	6	..........a	-327.68
	43	0.88	-2.38463E-001	-2.88528E-001	-2.63496E-001	-1.11828E-006	1.09202E-006	-2.21031E-006	-2.89000E-001	3.59373E-004	6	..........a	-327.68
	44	0.9	-2.36471E-001	-2.86553E-001	-2.61512E-001	-1.12068E-006	1.08649E-006	-2.20717E-006	-2.87000E-001	3.45206E-004	6	..........a	-327.68
	45	0.92	-2.34466E-001	-2.84563E-001	-2.59515E-001	-1.12189E-006	1.08186E-006	-2.20374E-006	-2.85000E-001	3.61039E-004	6	..........a	-327.68
	46	0.94	-2.32520E-001	-2.82550E-001	-2.57535E-001	-1.12473E-006	1.07789E-006	-2.20262E-006	-2.83000E-001	3.81873E-004	6	..........a	-327.68
	47	0.96	-2.30545E-001	-2.80584E-001	-2.55564E-001	-1.12881E-006	1.07486E-006	-2.20366E-006	-2.81000E-001	3.82706E-004	6	..........a	-327.68
	48	0.98	-2.28579E-001	-2.78555E-001	-2.53567E-001	-1.13395E-006	1.07364E-006	-2.20759E-006	-2.79000E-001	3.61873E-004	6	..........a	-327.68
	49	1	-2.26601E-001	-2.76549E-001	-2.51575E-001	-1.13955E-006	1.07103E-006	-2.21058E-006	-2.77000E-001	3.49373E-004	6	..........a	-327.68
	50	1.02	-2.24676E-001	-2.74552E-001	-2.49614E-001	-1.14414E-006	1.07016E-006	-2.21430E-006	-2.75000E-001	3.72706E-004	6	..........a	-327.68
	51	1.04	-2.22708E-001	-2.72547E-001	-2.47628E-001	-1.14931E-006	1.06916E-006	-2.21847E-006	-2.73000E-001	3.75206E-004	6	..........a	-327.68
	52	1.06	-2.20789E-001	-2.70523E-001	-2.45656E-001	-1.15616E-006	1.07015E-006	-2.22630E-006	-2.71000E-001	3.84373E-004	6	..........a	-327.68
	53	1.08	-2.18807E-001	-2.68500E-001	-2.43653E-001	-1.16277E-006	1.07170E-006	-2.23447E-006	-2.69000E-001	3.87706E-004	6	..........a	-327.68
	54	1.1	-2.16877E-001	-2.66459E-001	-2.41668E-001	-1.16936E-006	1.07337E-006	-2.24273E-006	-2.67000E-001	3.54373E-004	6	..........a	-327.68
	55	1.12	-2.14931E-001	-2.64430E-001	-2.39681E-001	-1.17449E-006	1.07571E-006	-2.25020E-006	-2.65000E-001	3.61873E-004	6	..........a	-327.68
	56	1.14	-2.12979E-001	-2.62418E-001	-2.37698E-001	-1.18048E-006	1.07703E-006	-2.25751E-006	-2.63000E-001	3.73539E-004	6	..........a	-327.68
	57	1.16	-2.11071E-001	-2.60406E-001	-2.35738E-001	-1.18713E-006	1.08063E-006	-2.26776E-006	-2.61000E-001	3.68539E-004	6	..........a	-327.68
	58	1.18	-2.09136E-001	-2.58353E-001	-2.33744E-001	-1.19305E-006	1.08546E-006	-2.27851E-006	-2.59000E-001	3.56873E-004	6	..........a	-327.68
	59	1.2	-2.07181E-001	-2.56361E-001	-2.31771E-001	-1.19863E-006	1.08871E-006	-2.28734E-006	-2.57000E-001	3.58539E-004	6	..........a	-327.68
	60	1.22	-2.05262E-001	-2.54329E-001	-2.29796E-001	-1.20286E-006	1.09262E-006	-2.29548E-006	-2.55000E-001	3.81873E-004	6	..........a	-327.68
	61	1.24	-2.03346E-001	-2.52317E-001	-2.27831E-001	-1.20609E-006	1.09645E-006	-2.30254E-006	-2.53000E-001	3.98539E-004	6	..........a	-327.68
	62	1.26	-2.01416E-001	-2.50274E-001	-2.25845E-001	-1.21060E-006	1.10185E-006	-2.31245E-006	-2.51000E-001	3.66039E-004	6	..........a	-327.68
	63	1.28	-1.99472E-001	-2.48251E-001	-2.23862E-001	-1.21462E-006	1.10689E-006	-2.32151E-006	-2.49000E-001	3.57706E-004	6	..........a	-327.68
	64	1.3	-1.97529E-001	-2.46227E-001	-2.21878E-001	-1.21792E-006	1.11153E-006	-2.32945E-006	-2.47000E-001	3.84373E-004	6	..........a	-327.68
	65	1.32	-1.95587E-001	-2.44187E-001	-2.19887E-001	-1.22059E-006	1.11558E-006	-2.33617E-006	-2.45000E-001	3.75206E-004	6	..........a	-327.68
	66	1.34	-1.93661E-001	-2.42136E-001	-2.17899E-001	-1.22176E-006	1.11937E-006	-2.34113E-006	-2.43000E-001	3.68539E-004	6	..........a	-327.68
	67	1.36	-1.91694E-001	-2.40129E-001	-2.15911E-001	-1.22380E-006	1.12544E-006	-2.34924E-006	-2.41000E-001	3.50206E-004	6	..........a	-327.68
	68	1.38	-1.89722E-001	-2.38090E-001	-2.13906E-001	-1.22542E-006	1.13051E-006	-2.35593E-006	-2.39000E-001	3.56039E-004	6	..........a	-327.68
	69	1.4	-1.87776E-001	-2.36063E-001	-2.11919E-001	-1.22740E-006	1.13430E-006	-2.36170E-006	-2.37000E-001	3.65206E-004	6	..........a	-327.68
	70	1.42	-1.85840E-001	-2.34030E-001	-2.09935E-001	-1.22679E-006	1.13839E-006	-2.36517E-006	-2.35000E-001	3.94373E-004	6	..........a	-327.68
	71	1.44	-1.83877E-001	-2.32001E-001	-2.07939E-001	-1.22714E-006	1.14212E-006	-2.36926E-006	-2.33000E-001	3.68539E-004	6	..........a	-327.68
	72	1.46	-1.81905E-001	-2.29986E-001	-2.05945E-001	-1.22784E-006	1.14634E-006	-2.37417E-006	-2.31000E-001	3.89373E-004	6	..........a	-327.68
	73	1.48	-1.79948E-001	-2.27973E-001	-2.03961E-001	-1.22893E-006	1.15091E-006	-2.37983E-006	-2.29000E-001	3.90206E-004	6	..........a	-327.68
	74	1.5	-1.77999E-001	-2.25947E-001	-2.01973E-001	-1.22852E-006	1.15466E-006	-2.38318E-006	-2.27000E-001	3.63539E-004	6	..........a	-327.68
	75	1.52	-1.76046E-001	-2.23928E-001	-1.99987E-001	-1.22718E-006	1.15768E-006	-2.38486E-006	-2.25000E-001	3.71039E-004	6	..........a	-327.68
	76	1.54	-1.74091E-001	-2.21901E-001	-1.97996E-001	-1.22626E-006	1.15995E-006	-2.38621E-006	-2.23000E-001	3.60206E-004	6	..........a	-327.68
	77	1.56	-1.72107E-001	-2.19885E-001	-1.95996E-001	-1.22604E-006	1.16379E-006	-2.38983E-006	-2.21000E-001	3.81039E-004	6	..........a	-327.68
	78	1.58	-1.70126E-001	-2.17836E-001	-1.93981E-001	-1.22628E-006	1.16716E-006	-2.39343E-006	-2.19000E-001	3.88539E-004	6	..........a	-327.68
	79	1.6	-1.68151E-001	-2.15817E-001	-1.91984E-001	-1.22574E-006	1.16908E-006	-2.39481E-006	-2.17000E-001	3.69373E-004	6	..........a	-327.68
	80	1.62	-1.66182E-001	-2.13792E-001	-1.89987E-001	-1.22447E-006	1.17149E-006	-2.39596E-006	-2.15000E-001	3.72706E-004	6	..........a	-327.68
	81	1.64	-1.64174E-001	-2.11773E-001	-1.87973E-001	-1.22308E-006	1.17245E-006	-2.39553E-006	-2.13000E-001	3.90206E-004	6	..........a	-327.68
	82	1.66	-1.62171E-001	-2.09749E-001	-1.85960E-001	-1.22239E-006	1.17525E-006	-2.39763E-006	-2.11000E-001	3.53539E-004	6	..........a	-327.68
	83	1.68	-1.60207E-001	-2.07732E-001	-1.83970E-001	-1.22191E-006	1.17685E-006	-2.39877E-006	-2.09000E-001	3.60206E-004	6	..........a	-327.68
	84	1.7	-1.58230E-001	-2.05716E-001	-1.81973E-001	-1.22172E-006	1.17806E-006	-2.39978E-006	-2.07000E-001	3.44373E-004	6	..........a	-327.68
	85	1.72	-1.56248E-001	-2.03701E-001	-1.79975E-001	-1.22029E-006	1.17905E-006	-2.39935E-006	-2.05000E-001	3.94373E-004	6	..........a	-327.68
	86	1.74	-1.54246E-001	-2.01707E-001	-1.77977E-001	-1.21912E-006	1.17965E-006	-2.39877E-006	-2.03000E-001	3.76873E-004	6	..........a	-327.68
	87	1.76	-1.52254E-001	-1.99699E-001	-1.75976E-001	-1.21855E-006	1.18188E-006	-2.40044E-006	-2.01000E-001	3.85206E-004	6	..........a	-327.68
	88	1.78	-1.50271E-001	-1.97678E-001	-1.73974E-001	-1.21784E-006	1.18325E-006	-2.40110E-006	-1.99000E-001	3.62706E-004	6	..........a	-327.68
	89	1.8	-1.48296E-001	-1.95664E-001	-1.71980E-001	-1.21779E-006	1.18299E-006	-2.40078E-006	-1.97000E-001	3.63539E-004	6	..........a	-327.68
	90	1.82	-1.46288E-001	-1.93629E-001	-1.69958E-001	-1.21603E-006	1.18357E-006	-2.39959E-006	-1.95000E-001	3.97706E-004	6	..........a	-327.68
	91	1.84	-1.44296E-001	-1.91626E-001	-1.67961E-001	-1.21501E-006	1.18373E-006	-2.39874E-006	-1.93000E-001	3.91039E-004	6	..........a	-327.68
	92	1.86	-1.42321E-001	-1.89589E-001	-1.65955E-001	-1.21484E-006	1.18529E-006	-2.40013E-006	-1.91000E-001	3.72706E-004	6	..........a	-327.68
	93	1.88	-1.40300E-001	-1.87565E-001	-1.63932E-001	-1.21483E-006	1.18542E-006	-2.40025E-006	-1.89000E-001	3.76039E-004	6	..........a	-327.68
	94	1.9	-1.38291E-001	-1.85554E-001	-1.61922E-001	-1.21510E-006	1.18581E-006	-2.40091E-006	-1.87000E-001	3.56039E-004	6	..........a	-327.68
	95	1.92	-1.36305E-001	-1.83569E-001	-1.59937E-001	-1.21329E-006	1.18566E-006	-2.39895E-006	-1.85000E-001	3.65206E-004	6	..........a	-327.68
	96	1.94	-1.34315E-001	-1.81522E-001	-1.57918E-001	-1.21219E-006	1.18506E-006	-2.39725E-006	-1.83000E-001	3.61873E-004	6	..........a	-327.68
	97	1.96	-1.32319E-001	-1.79525E-001	-1.55922E-001	-1.21280E-006	1.18648E-006	-2.39928E-006	-1.81000E-001	3.64373E-004	6	..........a	-327.68
	98	1.98	-1.30313E-001	-1.77551E-001	-1.53932E-001	-1.21291E-006	1.18648E-006	-2.39939E-006	-1.79000E-001	3.52706E-004	6	..........a	-327.68
	99	2	-1.28305E-001	-1.75522E-001	-1.51913E-001	-1.21249E-006	1.18630E-006	-2.39879E-006	-1.77000E-001	3.76873E-004	6	..........a	-327.68
	100	2.02	-1.26311E-001	-1.73526E-001	-1.49918E-001	-1.21176E-006	1.18650E-006	-2.39826E-006	-1.75000E-001	3.68539E-004	6	..........a	-327.68
