EXPLAIN
TAG	SQUARE_WAVE
TITLE	LABEL	Square Wave Voltammetry	Test Identifier
DATE	LABEL	8/31/2020	Date
TIME	LABEL	12:46:32	Time
NOTES	NOTES	1	Notes...
	
PSTAT	PSTAT	REF600-24079	Potentiostat
VINIT	QUANT	-3.50000E-001	Initial E (V)
VFINAL	QUANT	-1.50000E-001	Final E (V)
STEPSIZE	QUANT	2.00000E+000	Step Size (mV)
TIMERRES	QUANT	3.33340E-005	&Timer Resolution
FREQUENCY	QUANT	1.00000E+001	Frequency (Hz)
PULSESIZE	QUANT	2.50000E+001	Pulse Size E (mV)
PULSEON	QUANT	1.00000E-001	Pulse &Time (s)
NOISEREJECT	TOGGLE	F	Noise Rejection
AREA	QUANT	2.00000E-002	Sample Area (cm^2)
IMODE	SELECTOR	1	I/E Range Mode
IRANGE	QUANT	1.00000E-003	Max Current (mA)
EQDELAY	IQUANT	10	Equil. Time (s)
IRCOMP	SELECTOR	0	IRComp
PFCOR	QUANT	5.00000E+001	PF Corr. (ohm)
CYCLES	IQUANT	101	C&ycles (#)
ELECTRODETYPE	SELECTOR	0	Electrode Type
STRIPPING	TOGGLE	F	Used for Stripping
POLARITY	TOGGLE	F	Signal Polarity
LINEFREQ	IQUANT	60	Line Frequency (Hz)
INTPERIOD	QUANT	3.3334E-005	Integration Period (s)
SEQUENCER	TOGGLE	TRUE	Run as Sequence
PSTATMODEL	IQUANT	4	Pstat Model
PSTATSECTION	LABEL	REF600-24079	Pstat Section
PSTATSERIALNO	LABEL	24079	Pstat Serial Number
CTRLMODE	IQUANT	1	Control Mode
ELECTROMETER	IQUANT	0	RE=0 or CS=1
IESTAB	IQUANT	2	I/E Stability
CASPEED	IQUANT	6	Control Amp Speed
CONVENTION	IQUANT	1	Current Convention
ICHRANGE	IQUANT	2	Ich Range
ICHRANGEMODE	TOGGLE	F	Ich Auto Range
ICHOFFSETENABLE	TOGGLE	F	Ich Offset Enable
ICHOFFSET	QUANT	0	Ich Offset (V)
ICHFILTER	IQUANT	2	Ich Filter
VCHRANGE	IQUANT	2	Vch Range
VCHRANGEMODE	TOGGLE	F	Vch Auto Range
VCHOFFSETENABLE	TOGGLE	F	Vch Offset Enable
VCHOFFSET	QUANT	0	Vch Offset (V)
VCHFILTER	IQUANT	2	Vch Filter
ACHRANGE	IQUANT	2	Ach Range
ACHOFFSETENABLE	TOGGLE	F	Ach Offset Enable
ACHOFFSET	QUANT	0	Ach Offset (V)
ACHFILTER	IQUANT	1	Ach Filter
IERANGELOWERLIMIT	IQUANT	1	I/E Range Lower Limit
IERANGEMODE	TOGGLE	F	I/E AutoRange
IERANGE	IQUANT	6	I/E Range
POSFEEDENABLE	TOGGLE	F	Positive Feedback IR Comp
POSFEEDRESISTANCE	QUANT	0	Positive Feedback Resistance (ohm)
ACHSELECT	IQUANT	0	Ach Select
SENSECABLEID	IQUANT	13	Sense Cable ID
PWRCABLEID	IQUANT	13	Power Cable ID
DCCALDATE	LABEL	6/30/2020	DC Calibration Date
ACCALDATE	LABEL	6/30/2020	AC Calibration Date
THERMOSELECT	IQUANT	1	Thermo Select
FRAMEWORKVERSION	LABEL	7.8.2	Framework Version
INSTRUMENTVERSION	LABEL	4.40	Instrument Version
CURVE	TABLE	101
	Pt	T	Vfwd	Vrev	Vstep	Ifwd	Irev	Idif	Sig	Ach	IERange	Over	Temp
	#	s	V	V	V	A	A	A	V	V	#	bits	deg C
	0	0.1	-3.24849E-001	-3.74883E-001	-3.49866E-001	-1.37655E-008	-4.80962E-008	3.43307E-008	-3.75000E-001	3.53539E-004	6	..........a	-327.68
	1	0.2	-3.22853E-001	-3.72878E-001	-3.47866E-001	-1.36767E-010	-4.28649E-008	4.27281E-008	-3.73000E-001	3.53373E-004	6	..........a	-327.68
	2	0.3	-3.20886E-001	-3.70793E-001	-3.45840E-001	2.66292E-009	-4.06549E-008	4.33178E-008	-3.71000E-001	3.45039E-004	6	..........a	-327.68
	3	0.4	-3.18887E-001	-3.68879E-001	-3.43883E-001	4.38047E-009	-3.93821E-008	4.37626E-008	-3.69000E-001	3.44706E-004	6	..........a	-327.68
	4	0.5	-3.16760E-001	-3.66920E-001	-3.41840E-001	5.77665E-009	-3.83420E-008	4.41186E-008	-3.67000E-001	3.46373E-004	6	..........a	-327.68
	5	0.6	-3.14882E-001	-3.64772E-001	-3.39827E-001	6.55342E-009	-3.74725E-008	4.40259E-008	-3.65000E-001	3.33373E-004	6	..........a	-327.68
	6	0.7	-3.12889E-001	-3.62815E-001	-3.37852E-001	7.77824E-009	-3.70291E-008	4.48074E-008	-3.63000E-001	3.36373E-004	6	..........a	-327.68
	7	0.8	-3.10872E-001	-3.60857E-001	-3.35865E-001	8.34665E-009	-3.66154E-008	4.49621E-008	-3.61000E-001	3.36373E-004	6	..........a	-327.68
	8	0.9	-3.08783E-001	-3.58878E-001	-3.33831E-001	9.38744E-009	-3.63817E-008	4.57692E-008	-3.59000E-001	3.46539E-004	6	..........a	-327.68
	9	1	-3.06805E-001	-3.56845E-001	-3.31825E-001	1.03826E-008	-3.57390E-008	4.61215E-008	-3.57000E-001	3.38539E-004	6	..........a	-327.68
	10	1.1	-3.04856E-001	-3.54833E-001	-3.29845E-001	1.13637E-008	-3.55066E-008	4.68703E-008	-3.55000E-001	3.29039E-004	6	..........a	-327.68
	11	1.2	-3.02890E-001	-3.52866E-001	-3.27878E-001	1.24958E-008	-3.55103E-008	4.80061E-008	-3.53000E-001	3.38373E-004	6	..........a	-327.68
	12	1.3	-3.00855E-001	-3.50871E-001	-3.25863E-001	1.36126E-008	-3.56816E-008	4.92943E-008	-3.51000E-001	3.33373E-004	6	..........a	-327.68
	13	1.4	-2.98832E-001	-3.48866E-001	-3.23849E-001	1.47428E-008	-3.53719E-008	5.01147E-008	-3.49000E-001	3.45039E-004	6	..........a	-327.68
	14	1.5	-2.96872E-001	-3.46860E-001	-3.21866E-001	1.61353E-008	-3.57206E-008	5.18559E-008	-3.47000E-001	3.50706E-004	6	..........a	-327.68
	15	1.6	-2.94888E-001	-3.44843E-001	-3.19866E-001	1.76032E-008	-3.58713E-008	5.34745E-008	-3.45000E-001	3.38706E-004	6	..........a	-327.68
	16	1.7	-2.92745E-001	-3.42919E-001	-3.17832E-001	1.93287E-008	-3.61734E-008	5.55021E-008	-3.43000E-001	3.47206E-004	6	..........a	-327.68
	17	1.8	-2.90829E-001	-3.40788E-001	-3.15808E-001	2.05309E-008	-3.67384E-008	5.72693E-008	-3.41000E-001	3.41039E-004	6	..........a	-327.68
	18	1.9	-2.88901E-001	-3.38826E-001	-3.13863E-001	2.23661E-008	-3.72702E-008	5.96362E-008	-3.39000E-001	3.38206E-004	6	..........a	-327.68
	19	2	-2.86873E-001	-3.36848E-001	-3.11861E-001	2.44284E-008	-3.79549E-008	6.23833E-008	-3.37000E-001	3.56206E-004	6	..........a	-327.68
	20	2.1	-2.84801E-001	-3.34875E-001	-3.09838E-001	2.66303E-008	-3.86863E-008	6.53166E-008	-3.35000E-001	3.46706E-004	6	..........a	-327.68
	21	2.2	-2.82818E-001	-3.32743E-001	-3.07780E-001	2.87706E-008	-3.96105E-008	6.83810E-008	-3.33000E-001	3.50373E-004	6	..........a	-327.68
	22	2.3	-2.80879E-001	-3.30825E-001	-3.05852E-001	3.10439E-008	-4.07273E-008	7.17711E-008	-3.31000E-001	3.40539E-004	6	..........a	-327.68
	23	2.4	-2.78869E-001	-3.28873E-001	-3.03871E-001	3.32281E-008	-4.20734E-008	7.53016E-008	-3.29000E-001	3.60039E-004	6	..........a	-327.68
	24	2.5	-2.76834E-001	-3.26882E-001	-3.01858E-001	3.57501E-008	-4.35793E-008	7.93294E-008	-3.27000E-001	3.59206E-004	6	..........a	-327.68
	25	2.6	-2.74844E-001	-3.24854E-001	-2.99849E-001	3.84111E-008	-4.49971E-008	8.34083E-008	-3.25000E-001	3.46706E-004	6	..........a	-327.68
	26	2.7	-2.72868E-001	-3.22854E-001	-2.97861E-001	4.12125E-008	-4.68254E-008	8.80379E-008	-3.23000E-001	3.53039E-004	6	..........a	-327.68
	27	2.8	-2.70875E-001	-3.20870E-001	-2.95872E-001	4.37391E-008	-4.89120E-008	9.26511E-008	-3.21000E-001	3.57706E-004	6	..........a	-327.68
	28	2.9	-2.68868E-001	-3.18895E-001	-2.93881E-001	4.65155E-008	-5.09089E-008	9.74244E-008	-3.19000E-001	3.38873E-004	6	..........a	-327.68
	29	3	-2.66792E-001	-3.16820E-001	-2.91806E-001	4.90768E-008	-5.30148E-008	1.02092E-007	-3.17000E-001	3.54706E-004	6	..........a	-327.68
	30	3.1	-2.64874E-001	-3.14880E-001	-2.89877E-001	5.15705E-008	-5.54655E-008	1.07036E-007	-3.15000E-001	3.61539E-004	6	..........a	-327.68
	31	3.2	-2.62881E-001	-3.12886E-001	-2.87883E-001	5.41981E-008	-5.80021E-008	1.12200E-007	-3.13000E-001	3.56039E-004	6	..........a	-327.68
	32	3.3	-2.60745E-001	-3.10874E-001	-2.85810E-001	5.64471E-008	-6.07358E-008	1.17183E-007	-3.11000E-001	3.45539E-004	6	..........a	-327.68
	33	3.4	-2.58804E-001	-3.08823E-001	-2.83814E-001	5.83637E-008	-6.33205E-008	1.21684E-007	-3.09000E-001	3.54206E-004	6	..........a	-327.68
	34	3.5	-2.56835E-001	-3.06854E-001	-2.81845E-001	6.02719E-008	-6.61428E-008	1.26415E-007	-3.07000E-001	3.57873E-004	6	..........a	-327.68
	35	3.6	-2.54890E-001	-3.04895E-001	-2.79892E-001	6.18558E-008	-6.89169E-008	1.30773E-007	-3.05000E-001	3.54206E-004	6	..........a	-327.68
	36	3.7	-2.52812E-001	-3.02895E-001	-2.77854E-001	6.31349E-008	-7.16422E-008	1.34777E-007	-3.03000E-001	3.54873E-004	6	..........a	-327.68
	37	3.8	-2.50827E-001	-3.00890E-001	-2.75858E-001	6.42888E-008	-7.43422E-008	1.38631E-007	-3.01000E-001	3.53539E-004	6	..........a	-327.68
	38	3.9	-2.48870E-001	-2.98859E-001	-2.73864E-001	6.49995E-008	-7.67828E-008	1.41782E-007	-2.99000E-001	3.41539E-004	6	..........a	-327.68
	39	4	-2.46859E-001	-2.96888E-001	-2.71874E-001	6.54096E-008	-7.92072E-008	1.44617E-007	-2.97000E-001	3.36539E-004	6	..........a	-327.68
	40	4.1	-2.44865E-001	-2.94864E-001	-2.69864E-001	6.55043E-008	-8.12524E-008	1.46757E-007	-2.95000E-001	3.56873E-004	6	..........a	-327.68
	41	4.2	-2.42765E-001	-2.92763E-001	-2.67764E-001	6.51265E-008	-8.32947E-008	1.48421E-007	-2.93000E-001	3.46706E-004	6	..........a	-327.68
	42	4.3	-2.40854E-001	-2.90836E-001	-2.65845E-001	6.48262E-008	-8.52119E-008	1.50038E-007	-2.91000E-001	3.45373E-004	6	..........a	-327.68
	43	4.4	-2.38891E-001	-2.88907E-001	-2.63899E-001	6.38084E-008	-8.61574E-008	1.49966E-007	-2.89000E-001	3.41373E-004	6	..........a	-327.68
	44	4.5	-2.36807E-001	-2.86879E-001	-2.61843E-001	6.28362E-008	-8.72929E-008	1.50129E-007	-2.87000E-001	3.44539E-004	6	..........a	-327.68
	45	4.6	-2.34794E-001	-2.84797E-001	-2.59796E-001	6.16231E-008	-8.78496E-008	1.49473E-007	-2.85000E-001	3.56206E-004	6	..........a	-327.68
	46	4.7	-2.32832E-001	-2.82808E-001	-2.57820E-001	5.99715E-008	-8.78036E-008	1.47775E-007	-2.83000E-001	3.45539E-004	6	..........a	-327.68
	47	4.8	-2.30860E-001	-2.80888E-001	-2.55874E-001	5.85540E-008	-8.76512E-008	1.46205E-007	-2.81000E-001	3.51206E-004	6	..........a	-327.68
	48	4.9	-2.28769E-001	-2.78887E-001	-2.53828E-001	5.66515E-008	-8.70905E-008	1.43742E-007	-2.79000E-001	3.43539E-004	6	..........a	-327.68
	49	5	-2.26814E-001	-2.76849E-001	-2.51832E-001	5.50156E-008	-8.60304E-008	1.41046E-007	-2.77000E-001	3.47373E-004	6	..........a	-327.68
	50	5.1	-2.24854E-001	-2.74857E-001	-2.49855E-001	5.31327E-008	-8.46115E-008	1.37744E-007	-2.75000E-001	3.49039E-004	6	..........a	-327.68
	51	5.2	-2.22856E-001	-2.72882E-001	-2.47869E-001	5.11011E-008	-8.28016E-008	1.33903E-007	-2.73000E-001	3.55873E-004	6	..........a	-327.68
	52	5.3	-2.20845E-001	-2.70862E-001	-2.45854E-001	4.89038E-008	-8.05220E-008	1.29426E-007	-2.71000E-001	3.49039E-004	6	..........a	-327.68
	53	5.4	-2.18850E-001	-2.68862E-001	-2.43856E-001	4.71092E-008	-7.81240E-008	1.25233E-007	-2.69000E-001	3.55373E-004	6	..........a	-327.68
	54	5.5	-2.16871E-001	-2.66822E-001	-2.41846E-001	4.52323E-008	-7.54594E-008	1.20692E-007	-2.67000E-001	3.51706E-004	6	..........a	-327.68
	55	5.6	-2.14880E-001	-2.64894E-001	-2.39887E-001	4.30684E-008	-7.24766E-008	1.15545E-007	-2.65000E-001	3.60706E-004	6	..........a	-327.68
	56	5.7	-2.12814E-001	-2.62890E-001	-2.37852E-001	4.11535E-008	-6.96669E-008	1.10820E-007	-2.63000E-001	3.56539E-004	6	..........a	-327.68
	57	5.8	-2.10842E-001	-2.60793E-001	-2.35818E-001	3.96316E-008	-6.63639E-008	1.05995E-007	-2.61000E-001	3.54539E-004	6	..........a	-327.68
	58	5.9	-2.08862E-001	-2.58832E-001	-2.33847E-001	3.79367E-008	-6.31078E-008	1.01045E-007	-2.59000E-001	3.61873E-004	6	..........a	-327.68
	59	6	-2.06872E-001	-2.56870E-001	-2.31871E-001	3.61455E-008	-5.99407E-008	9.60862E-008	-2.57000E-001	3.75539E-004	6	..........a	-327.68
	60	6.1	-2.04799E-001	-2.54898E-001	-2.29848E-001	3.44980E-008	-5.69473E-008	9.14453E-008	-2.55000E-001	3.63706E-004	6	..........a	-327.68
	61	6.2	-2.02827E-001	-2.52853E-001	-2.27840E-001	3.32175E-008	-5.36926E-008	8.69101E-008	-2.53000E-001	3.58706E-004	6	..........a	-327.68
	62	6.3	-2.00871E-001	-2.50854E-001	-2.25863E-001	3.17496E-008	-5.07572E-008	8.25068E-008	-2.51000E-001	3.54539E-004	6	..........a	-327.68
	63	6.4	-1.98862E-001	-2.48877E-001	-2.23870E-001	3.05318E-008	-4.79482E-008	7.84800E-008	-2.49000E-001	3.50039E-004	6	..........a	-327.68
	64	6.5	-1.96849E-001	-2.46866E-001	-2.21857E-001	2.93213E-008	-4.49851E-008	7.43065E-008	-2.47000E-001	3.50206E-004	6	..........a	-327.68
	65	6.6	-1.94845E-001	-2.44863E-001	-2.19854E-001	2.81618E-008	-4.21428E-008	7.03046E-008	-2.45000E-001	3.44539E-004	6	..........a	-327.68
	66	6.7	-1.92863E-001	-2.42787E-001	-2.17825E-001	2.71150E-008	-3.97945E-008	6.69095E-008	-2.43000E-001	3.47539E-004	6	..........a	-327.68
	67	6.8	-1.90898E-001	-2.40850E-001	-2.15874E-001	2.63179E-008	-3.75329E-008	6.38508E-008	-2.41000E-001	3.49373E-004	6	..........a	-327.68
	68	6.9	-1.88748E-001	-2.38905E-001	-2.13827E-001	2.55998E-008	-3.51649E-008	6.07647E-008	-2.39000E-001	3.42873E-004	6	..........a	-327.68
	69	7	-1.86831E-001	-2.36840E-001	-2.11836E-001	2.45460E-008	-3.32817E-008	5.78277E-008	-2.37000E-001	3.45706E-004	6	..........a	-327.68
	70	7.1	-1.84870E-001	-2.34829E-001	-2.09849E-001	2.39990E-008	-3.14077E-008	5.54067E-008	-2.35000E-001	3.58206E-004	6	..........a	-327.68
	71	7.2	-1.82858E-001	-2.32852E-001	-2.07855E-001	2.31902E-008	-2.96785E-008	5.28687E-008	-2.33000E-001	3.40873E-004	6	..........a	-327.68
	72	7.3	-1.80781E-001	-2.30861E-001	-2.05821E-001	2.28495E-008	-2.81550E-008	5.10045E-008	-2.31000E-001	3.49539E-004	6	..........a	-327.68
	73	7.4	-1.78812E-001	-2.28774E-001	-2.03793E-001	2.22397E-008	-2.66711E-008	4.89109E-008	-2.29000E-001	3.33706E-004	6	..........a	-327.68
	74	7.5	-1.76851E-001	-2.26834E-001	-2.01842E-001	2.17797E-008	-2.53603E-008	4.71400E-008	-2.27000E-001	3.45873E-004	6	..........a	-327.68
	75	7.6	-1.74867E-001	-2.24866E-001	-1.99866E-001	2.13213E-008	-2.41835E-008	4.55048E-008	-2.25000E-001	3.47373E-004	6	..........a	-327.68
	76	7.7	-1.72820E-001	-2.22867E-001	-1.97844E-001	2.11143E-008	-2.33784E-008	4.44927E-008	-2.23000E-001	3.53206E-004	6	..........a	-327.68
	77	7.8	-1.70828E-001	-2.20851E-001	-1.95839E-001	2.07662E-008	-2.22969E-008	4.30631E-008	-2.21000E-001	3.32373E-004	6	..........a	-327.68
	78	7.9	-1.68856E-001	-2.18842E-001	-1.93849E-001	2.05279E-008	-2.16812E-008	4.22090E-008	-2.19000E-001	3.42206E-004	6	..........a	-327.68
	79	8	-1.66866E-001	-2.16889E-001	-1.91877E-001	2.02502E-008	-2.08751E-008	4.11252E-008	-2.17000E-001	3.42706E-004	6	..........a	-327.68
	80	8.1	-1.64729E-001	-2.14878E-001	-1.89804E-001	1.97878E-008	-2.01400E-008	3.99277E-008	-2.15000E-001	3.49206E-004	6	..........a	-327.68
	81	8.2	-1.62810E-001	-2.12841E-001	-1.87825E-001	1.97808E-008	-1.96599E-008	3.94407E-008	-2.13000E-001	3.47539E-004	6	..........a	-327.68
	82	8.3	-1.60890E-001	-2.10847E-001	-1.85869E-001	1.98234E-008	-1.88305E-008	3.86539E-008	-2.11000E-001	3.43873E-004	6	..........a	-327.68
	83	8.4	-1.58859E-001	-2.08857E-001	-1.83858E-001	1.96294E-008	-1.85348E-008	3.81642E-008	-2.09000E-001	3.50039E-004	6	..........a	-327.68
	84	8.5	-1.56798E-001	-2.06865E-001	-1.81831E-001	1.95207E-008	-1.80480E-008	3.75688E-008	-2.07000E-001	3.36873E-004	6	..........a	-327.68
	85	8.6	-1.54816E-001	-2.04786E-001	-1.79801E-001	1.93840E-008	-1.74906E-008	3.68747E-008	-2.05000E-001	3.53039E-004	6	..........a	-327.68
	86	8.7	-1.52863E-001	-2.02826E-001	-1.77844E-001	1.92724E-008	-1.73400E-008	3.66123E-008	-2.03000E-001	3.40539E-004	6	..........a	-327.68
	87	8.8	-1.50861E-001	-2.00857E-001	-1.75859E-001	1.92717E-008	-1.68012E-008	3.60729E-008	-2.01000E-001	3.40373E-004	6	..........a	-327.68
	88	8.9	-1.48828E-001	-1.98861E-001	-1.73844E-001	1.91617E-008	-1.64582E-008	3.56199E-008	-1.99000E-001	3.35873E-004	6	..........a	-327.68
	89	9	-1.46822E-001	-1.96826E-001	-1.71824E-001	1.93584E-008	-1.62815E-008	3.56399E-008	-1.97000E-001	3.48539E-004	6	..........a	-327.68
	90	9.1	-1.44861E-001	-1.94839E-001	-1.69850E-001	1.91354E-008	-1.59694E-008	3.51048E-008	-1.95000E-001	3.44206E-004	6	..........a	-327.68
	91	9.2	-1.42864E-001	-1.92859E-001	-1.67862E-001	1.92124E-008	-1.55717E-008	3.47841E-008	-1.93000E-001	3.54373E-004	6	..........a	-327.68
	92	9.3	-1.40834E-001	-1.90908E-001	-1.65871E-001	1.84433E-008	-1.54824E-008	3.39257E-008	-1.91000E-001	3.51873E-004	6	..........a	-327.68
	93	9.4	-1.38805E-001	-1.88701E-001	-1.63753E-001	1.92050E-008	-1.52197E-008	3.44247E-008	-1.89000E-001	3.47373E-004	6	..........a	-327.68
	94	9.5	-1.36858E-001	-1.86830E-001	-1.61844E-001	1.92260E-008	-1.51707E-008	3.43967E-008	-1.87000E-001	3.55206E-004	6	..........a	-327.68
	95	9.6	-1.34862E-001	-1.84872E-001	-1.59867E-001	1.92670E-008	-1.49677E-008	3.42347E-008	-1.85000E-001	3.54206E-004	6	..........a	-327.68
	96	9.7	-1.32785E-001	-1.82856E-001	-1.57820E-001	1.91850E-008	-1.47693E-008	3.39543E-008	-1.83000E-001	3.44039E-004	6	..........a	-327.68
	97	9.8	-1.30811E-001	-1.80742E-001	-1.55776E-001	1.92384E-008	-1.46886E-008	3.39270E-008	-1.81000E-001	3.43206E-004	6	..........a	-327.68
	98	9.9	-1.28837E-001	-1.78825E-001	-1.53831E-001	1.92204E-008	-1.45089E-008	3.37293E-008	-1.79000E-001	3.49039E-004	6	..........a	-327.68
	99	10	-1.26874E-001	-1.76853E-001	-1.51864E-001	1.92714E-008	-1.42992E-008	3.35706E-008	-1.77000E-001	3.58539E-004	6	..........a	-327.68
	100	10.1	-1.24805E-001	-1.74868E-001	-1.49837E-001	1.93310E-008	-1.41726E-008	3.35036E-008	-1.75000E-001	3.46873E-004	6	..........a	-327.68
