EXPLAIN
TAG	SQUARE_WAVE
TITLE	LABEL	Square Wave Voltammetry	Test Identifier
DATE	LABEL	8/25/2020	Date
TIME	LABEL	13:35:24	Time
NOTES	NOTES	1	Notes...
	
PSTAT	PSTAT	REF600-24079	Potentiostat
VINIT	QUANT	-3.50000E-001	Initial E (V)
VFINAL	QUANT	-1.50000E-001	Final E (V)
STEPSIZE	QUANT	2.00000E+000	Step Size (mV)
TIMERRES	QUANT	3.33340E-005	&Timer Resolution
FREQUENCY	QUANT	2.50000E+002	Frequency (Hz)
PULSESIZE	QUANT	2.50000E+001	Pulse Size E (mV)
PULSEON	QUANT	4.00000E-003	Pulse &Time (s)
NOISEREJECT	TOGGLE	F	Noise Rejection
AREA	QUANT	2.00000E-002	Sample Area (cm^2)
IMODE	SELECTOR	1	I/E Range Mode
IRANGE	QUANT	1.00000E-002	Max Current (mA)
EQDELAY	IQUANT	10	Equil. Time (s)
IRCOMP	SELECTOR	0	IRComp
PFCOR	QUANT	5.00000E+001	PF Corr. (ohm)
CYCLES	IQUANT	101	C&ycles (#)
ELECTRODETYPE	SELECTOR	0	Electrode Type
STRIPPING	TOGGLE	F	Used for Stripping
POLARITY	TOGGLE	F	Signal Polarity
LINEFREQ	IQUANT	60	Line Frequency (Hz)
INTPERIOD	QUANT	3.3334E-005	Integration Period (s)
SEQUENCER	TOGGLE	TRUE	Run as Sequence
PSTATMODEL	IQUANT	4	Pstat Model
PSTATSECTION	LABEL	REF600-24079	Pstat Section
PSTATSERIALNO	LABEL	24079	Pstat Serial Number
CTRLMODE	IQUANT	1	Control Mode
ELECTROMETER	IQUANT	0	RE=0 or CS=1
IESTAB	IQUANT	2	I/E Stability
CASPEED	IQUANT	6	Control Amp Speed
CONVENTION	IQUANT	1	Current Convention
ICHRANGE	IQUANT	2	Ich Range
ICHRANGEMODE	TOGGLE	F	Ich Auto Range
ICHOFFSETENABLE	TOGGLE	F	Ich Offset Enable
ICHOFFSET	QUANT	0	Ich Offset (V)
ICHFILTER	IQUANT	2	Ich Filter
VCHRANGE	IQUANT	2	Vch Range
VCHRANGEMODE	TOGGLE	F	Vch Auto Range
VCHOFFSETENABLE	TOGGLE	F	Vch Offset Enable
VCHOFFSET	QUANT	0	Vch Offset (V)
VCHFILTER	IQUANT	1	Vch Filter
ACHRANGE	IQUANT	2	Ach Range
ACHOFFSETENABLE	TOGGLE	F	Ach Offset Enable
ACHOFFSET	QUANT	0	Ach Offset (V)
ACHFILTER	IQUANT	1	Ach Filter
IERANGELOWERLIMIT	IQUANT	1	I/E Range Lower Limit
IERANGEMODE	TOGGLE	F	I/E AutoRange
IERANGE	IQUANT	7	I/E Range
POSFEEDENABLE	TOGGLE	F	Positive Feedback IR Comp
POSFEEDRESISTANCE	QUANT	0	Positive Feedback Resistance (ohm)
ACHSELECT	IQUANT	0	Ach Select
SENSECABLEID	IQUANT	13	Sense Cable ID
PWRCABLEID	IQUANT	13	Power Cable ID
DCCALDATE	LABEL	6/30/2020	DC Calibration Date
ACCALDATE	LABEL	6/30/2020	AC Calibration Date
THERMOSELECT	IQUANT	1	Thermo Select
FRAMEWORKVERSION	LABEL	7.8.2	Framework Version
INSTRUMENTVERSION	LABEL	4.40	Instrument Version
CURVE	TABLE	101
	Pt	T	Vfwd	Vrev	Vstep	Ifwd	Irev	Idif	Sig	Ach	IERange	Over	Temp
	#	s	V	V	V	A	A	A	V	V	#	bits	deg C
	0	0.004	-3.24774E-001	-3.82657E-001	-3.53716E-001	5.31526E-008	-5.11897E-006	5.17212E-006	-3.75000E-001	2.53539E-004	7	..........a	-327.68
	1	0.008	-3.13791E-001	-3.81870E-001	-3.47830E-001	5.85569E-006	-5.94475E-006	1.18004E-005	-3.73000E-001	1.95206E-004	7	..........a	-327.68
	2	0.012	-3.11682E-001	-3.79891E-001	-3.45787E-001	6.03480E-006	-5.95600E-006	1.19908E-005	-3.71000E-001	2.20206E-004	7	..........a	-327.68
	3	0.016	-3.09649E-001	-3.77924E-001	-3.43787E-001	6.05280E-006	-5.94742E-006	1.20002E-005	-3.69000E-001	2.20206E-004	7	..........a	-327.68
	4	0.02	-3.07662E-001	-3.75832E-001	-3.41747E-001	6.07397E-006	-5.94500E-006	1.20190E-005	-3.67000E-001	2.41039E-004	7	..........a	-327.68
	5	0.024	-3.05649E-001	-3.73895E-001	-3.39772E-001	6.08106E-006	-5.94133E-006	1.20224E-005	-3.65000E-001	2.16039E-004	7	..........a	-327.68
	6	0.028	-3.03658E-001	-3.71945E-001	-3.37801E-001	6.09598E-006	-5.94241E-006	1.20384E-005	-3.63000E-001	2.20206E-004	7	..........a	-327.68
	7	0.032	-3.01670E-001	-3.69899E-001	-3.35785E-001	6.10539E-006	-5.94692E-006	1.20523E-005	-3.61000E-001	2.36873E-004	7	..........a	-327.68
	8	0.036	-2.99699E-001	-3.67853E-001	-3.33776E-001	6.11648E-006	-5.95250E-006	1.20690E-005	-3.59000E-001	2.20206E-004	7	..........a	-327.68
	9	0.04	-2.97707E-001	-3.65874E-001	-3.31791E-001	6.13790E-006	-5.96350E-006	1.21014E-005	-3.57000E-001	2.16039E-004	7	..........a	-327.68
	10	0.044	-2.95737E-001	-3.63957E-001	-3.29847E-001	6.14832E-006	-5.96858E-006	1.21169E-005	-3.55000E-001	2.32706E-004	7	..........a	-327.68
	11	0.048	-2.93770E-001	-3.61874E-001	-3.27822E-001	6.16307E-006	-5.98042E-006	1.21435E-005	-3.53000E-001	2.24373E-004	7	..........a	-327.68
	12	0.052	-2.91795E-001	-3.59824E-001	-3.25810E-001	6.17532E-006	-5.99259E-006	1.21679E-005	-3.51000E-001	2.16039E-004	7	..........a	-327.68
	13	0.056	-2.89708E-001	-3.57878E-001	-3.23793E-001	6.20274E-006	-6.00284E-006	1.22056E-005	-3.49000E-001	1.86873E-004	7	..........a	-327.68
	14	0.06	-2.87841E-001	-3.55962E-001	-3.21901E-001	6.21349E-006	-6.01309E-006	1.22266E-005	-3.47000E-001	2.36873E-004	7	..........a	-327.68
	15	0.064	-2.85774E-001	-3.53928E-001	-3.19851E-001	6.23850E-006	-6.02851E-006	1.22670E-005	-3.45000E-001	1.86873E-004	7	..........a	-327.68
	16	0.068	-2.83837E-001	-3.51883E-001	-3.17860E-001	6.25825E-006	-6.04409E-006	1.23023E-005	-3.43000E-001	2.53539E-004	7	..........a	-327.68
	17	0.072	-2.81753E-001	-3.49866E-001	-3.15810E-001	6.28834E-006	-6.05993E-006	1.23483E-005	-3.41000E-001	2.32706E-004	7	..........a	-327.68
	18	0.076	-2.79891E-001	-3.47878E-001	-3.13885E-001	6.30542E-006	-6.07835E-006	1.23838E-005	-3.39000E-001	2.53539E-004	7	..........a	-327.68
	19	0.08	-2.77899E-001	-3.45820E-001	-3.11860E-001	6.32642E-006	-6.09427E-006	1.24207E-005	-3.37000E-001	2.32706E-004	7	..........a	-327.68
	20	0.084	-2.75920E-001	-3.43737E-001	-3.09828E-001	6.35776E-006	-6.12152E-006	1.24793E-005	-3.35000E-001	2.11873E-004	7	..........a	-327.68
	21	0.088	-2.73862E-001	-3.41837E-001	-3.07849E-001	6.38660E-006	-6.14303E-006	1.25296E-005	-3.33000E-001	2.32706E-004	7	..........a	-327.68
	22	0.092	-2.71966E-001	-3.39841E-001	-3.05903E-001	6.42152E-006	-6.16453E-006	1.25860E-005	-3.31000E-001	2.45206E-004	7	..........a	-327.68
	23	0.096	-2.69949E-001	-3.37762E-001	-3.03855E-001	6.44652E-006	-6.18795E-006	1.26345E-005	-3.29000E-001	1.82706E-004	7	..........a	-327.68
	24	0.1	-2.67966E-001	-3.35724E-001	-3.01845E-001	6.48328E-006	-6.21187E-006	1.26951E-005	-3.27000E-001	2.07706E-004	7	..........a	-327.68
	25	0.104	-2.66008E-001	-3.33803E-001	-2.99905E-001	6.52028E-006	-6.24304E-006	1.27633E-005	-3.25000E-001	1.95206E-004	7	..........a	-327.68
	26	0.108	-2.64058E-001	-3.31770E-001	-2.97914E-001	6.55654E-006	-6.26671E-006	1.28232E-005	-3.23000E-001	2.28539E-004	7	..........a	-327.68
	27	0.112	-2.62095E-001	-3.29783E-001	-2.95939E-001	6.59171E-006	-6.29780E-006	1.28895E-005	-3.21000E-001	2.49373E-004	7	..........a	-327.68
	28	0.116	-2.60124E-001	-3.27707E-001	-2.93916E-001	6.62630E-006	-6.32647E-006	1.29528E-005	-3.19000E-001	2.53539E-004	7	..........a	-327.68
	29	0.12	-2.58128E-001	-3.25707E-001	-2.91918E-001	6.66780E-006	-6.35697E-006	1.30248E-005	-3.17000E-001	2.16039E-004	7	..........a	-327.68
	30	0.124	-2.56120E-001	-3.23745E-001	-2.89932E-001	6.70473E-006	-6.38139E-006	1.30861E-005	-3.15000E-001	2.07706E-004	7	..........a	-327.68
	31	0.128	-2.54166E-001	-3.21745E-001	-2.87955E-001	6.75115E-006	-6.41023E-006	1.31614E-005	-3.13000E-001	2.45206E-004	7	..........a	-327.68
	32	0.132	-2.52199E-001	-3.19641E-001	-2.85920E-001	6.78165E-006	-6.43932E-006	1.32210E-005	-3.11000E-001	2.24373E-004	7	..........a	-327.68
	33	0.136	-2.50245E-001	-3.17632E-001	-2.83939E-001	6.82566E-006	-6.47149E-006	1.32971E-005	-3.09000E-001	2.41039E-004	7	..........a	-327.68
	34	0.14	-2.48274E-001	-3.15691E-001	-2.81983E-001	6.86883E-006	-6.49849E-006	1.33673E-005	-3.07000E-001	2.20206E-004	7	..........a	-327.68
	35	0.144	-2.46274E-001	-3.13657E-001	-2.79966E-001	6.90559E-006	-6.52258E-006	1.34282E-005	-3.05000E-001	1.82706E-004	7	..........a	-327.68
	36	0.148	-2.44308E-001	-3.11541E-001	-2.77924E-001	6.94009E-006	-6.55425E-006	1.34943E-005	-3.03000E-001	2.16039E-004	7	..........a	-327.68
	37	0.152	-2.42266E-001	-3.09637E-001	-2.75951E-001	6.97735E-006	-6.58050E-006	1.35578E-005	-3.01000E-001	2.07706E-004	7	..........a	-327.68
	38	0.156	-2.40303E-001	-3.07620E-001	-2.73962E-001	7.01652E-006	-6.60017E-006	1.36167E-005	-2.99000E-001	2.20206E-004	7	..........a	-327.68
	39	0.16	-2.38353E-001	-3.05578E-001	-2.71966E-001	7.04094E-006	-6.61826E-006	1.36592E-005	-2.97000E-001	1.74373E-004	7	..........a	-327.68
	40	0.164	-2.36395E-001	-3.03516E-001	-2.69955E-001	7.07103E-006	-6.63059E-006	1.37016E-005	-2.95000E-001	2.41039E-004	7	..........a	-327.68
	41	0.168	-2.34420E-001	-3.01516E-001	-2.67968E-001	7.09570E-006	-6.64909E-006	1.37448E-005	-2.93000E-001	2.11873E-004	7	..........a	-327.68
	42	0.172	-2.32316E-001	-2.99549E-001	-2.65933E-001	7.12428E-006	-6.66051E-006	1.37848E-005	-2.91000E-001	2.24373E-004	7	..........a	-327.68
	43	0.176	-2.30449E-001	-2.97503E-001	-2.63976E-001	7.14220E-006	-6.67118E-006	1.38134E-005	-2.89000E-001	2.28539E-004	7	..........a	-327.68
	44	0.18	-2.28412E-001	-2.95483E-001	-2.61947E-001	7.15529E-006	-6.67276E-006	1.38281E-005	-2.87000E-001	2.16039E-004	7	..........a	-327.68
	45	0.184	-2.26441E-001	-2.93491E-001	-2.59966E-001	7.16421E-006	-6.68310E-006	1.38473E-005	-2.85000E-001	2.11873E-004	7	..........a	-327.68
	46	0.188	-2.24366E-001	-2.91495E-001	-2.57930E-001	7.17246E-006	-6.68227E-006	1.38547E-005	-2.83000E-001	2.24373E-004	7	..........a	-327.68
	47	0.192	-2.22391E-001	-2.89474E-001	-2.55933E-001	7.18212E-006	-6.67468E-006	1.38568E-005	-2.81000E-001	1.95206E-004	7	..........a	-327.68
	48	0.196	-2.20374E-001	-2.87449E-001	-2.53912E-001	7.16812E-006	-6.66460E-006	1.38327E-005	-2.79000E-001	2.24373E-004	7	..........a	-327.68
	49	0.2	-2.18378E-001	-2.85441E-001	-2.51910E-001	7.16546E-006	-6.65101E-006	1.38165E-005	-2.77000E-001	2.41039E-004	7	..........a	-327.68
	50	0.204	-2.16274E-001	-2.83433E-001	-2.49853E-001	7.15662E-006	-6.63884E-006	1.37955E-005	-2.75000E-001	2.03539E-004	7	..........a	-327.68
	51	0.208	-2.14328E-001	-2.81420E-001	-2.47874E-001	7.14345E-006	-6.61784E-006	1.37613E-005	-2.73000E-001	2.07706E-004	7	..........a	-327.68
	52	0.212	-2.12333E-001	-2.79412E-001	-2.45872E-001	7.11562E-006	-6.59909E-006	1.37147E-005	-2.71000E-001	1.99373E-004	7	..........a	-327.68
	53	0.216	-2.10308E-001	-2.77362E-001	-2.43835E-001	7.09095E-006	-6.57508E-006	1.36660E-005	-2.69000E-001	2.53539E-004	7	..........a	-327.68
	54	0.22	-2.08316E-001	-2.75407E-001	-2.41862E-001	7.06561E-006	-6.55091E-006	1.36165E-005	-2.67000E-001	2.28539E-004	7	..........a	-327.68
	55	0.224	-2.06245E-001	-2.73403E-001	-2.39824E-001	7.03169E-006	-6.52449E-006	1.35562E-005	-2.65000E-001	2.11873E-004	7	..........a	-327.68
	56	0.228	-2.04253E-001	-2.71441E-001	-2.37847E-001	7.00252E-006	-6.48899E-006	1.34915E-005	-2.63000E-001	2.16039E-004	7	..........a	-327.68
	57	0.232	-2.02191E-001	-2.69474E-001	-2.35833E-001	6.95818E-006	-6.45773E-006	1.34159E-005	-2.61000E-001	1.78539E-004	7	..........a	-327.68
	58	0.236	-2.00195E-001	-2.67428E-001	-2.33812E-001	6.92417E-006	-6.42231E-006	1.33465E-005	-2.59000E-001	1.95206E-004	7	..........a	-327.68
	59	0.24	-1.98149E-001	-2.65437E-001	-2.31793E-001	6.88517E-006	-6.39081E-006	1.32760E-005	-2.57000E-001	1.95206E-004	7	..........a	-327.68
	60	0.244	-1.96170E-001	-2.63441E-001	-2.29805E-001	6.84074E-006	-6.34705E-006	1.31878E-005	-2.55000E-001	2.07706E-004	7	..........a	-327.68
	61	0.248	-1.94133E-001	-2.61524E-001	-2.27828E-001	6.79490E-006	-6.32138E-006	1.31163E-005	-2.53000E-001	2.28539E-004	7	..........a	-327.68
	62	0.252	-1.92078E-001	-2.59524E-001	-2.25801E-001	6.74998E-006	-6.27729E-006	1.30273E-005	-2.51000E-001	2.41039E-004	7	..........a	-327.68
	63	0.256	-1.90045E-001	-2.57412E-001	-2.23728E-001	6.70948E-006	-6.24537E-006	1.29548E-005	-2.49000E-001	2.45206E-004	7	..........a	-327.68
	64	0.26	-1.88066E-001	-2.55474E-001	-2.21770E-001	6.66022E-006	-6.20712E-006	1.28673E-005	-2.47000E-001	2.70206E-004	7	..........a	-327.68
	65	0.264	-1.85983E-001	-2.53462E-001	-2.19722E-001	6.62080E-006	-6.17411E-006	1.27949E-005	-2.45000E-001	2.24373E-004	7	..........a	-327.68
	66	0.268	-1.84028E-001	-2.51553E-001	-2.17791E-001	6.57204E-006	-6.13577E-006	1.27078E-005	-2.43000E-001	2.03539E-004	7	..........a	-327.68
	67	0.272	-1.81962E-001	-2.49545E-001	-2.15753E-001	6.52870E-006	-6.09760E-006	1.26263E-005	-2.41000E-001	2.11873E-004	7	..........a	-327.68
	68	0.276	-1.79949E-001	-2.47570E-001	-2.13760E-001	6.49203E-006	-6.06935E-006	1.25614E-005	-2.39000E-001	2.03539E-004	7	..........a	-327.68
	69	0.28	-1.77895E-001	-2.45633E-001	-2.11764E-001	6.45119E-006	-6.03259E-006	1.24838E-005	-2.37000E-001	2.20206E-004	7	..........a	-327.68
	70	0.284	-1.75928E-001	-2.43583E-001	-2.09755E-001	6.41202E-006	-6.00626E-006	1.24183E-005	-2.35000E-001	1.78539E-004	7	..........a	-327.68
	71	0.288	-1.73924E-001	-2.41574E-001	-2.07749E-001	6.36693E-006	-5.97850E-006	1.23454E-005	-2.33000E-001	1.95206E-004	7	..........a	-327.68
	72	0.292	-1.71928E-001	-2.39566E-001	-2.05747E-001	6.33434E-006	-5.94258E-006	1.22769E-005	-2.31000E-001	2.61873E-004	7	..........a	-327.68
	73	0.296	-1.69874E-001	-2.37591E-001	-2.03733E-001	6.29592E-006	-5.91724E-006	1.22132E-005	-2.29000E-001	1.99373E-004	7	..........a	-327.68
	74	0.3	-1.67849E-001	-2.35624E-001	-2.01737E-001	6.26983E-006	-5.89007E-006	1.21599E-005	-2.27000E-001	1.86873E-004	7	..........a	-327.68
	75	0.304	-1.65837E-001	-2.33562E-001	-1.99699E-001	6.22924E-006	-5.86099E-006	1.20902E-005	-2.25000E-001	2.32706E-004	7	..........a	-327.68
	76	0.308	-1.63845E-001	-2.31641E-001	-1.97743E-001	6.20349E-006	-5.83673E-006	1.20402E-005	-2.23000E-001	2.78539E-004	7	..........a	-327.68
	77	0.312	-1.61799E-001	-2.29699E-001	-1.95749E-001	6.17699E-006	-5.81973E-006	1.19967E-005	-2.21000E-001	2.07706E-004	7	..........a	-327.68
	78	0.316	-1.59824E-001	-2.27724E-001	-1.93774E-001	6.14890E-006	-5.79773E-006	1.19466E-005	-2.19000E-001	2.45206E-004	7	..........a	-327.68
	79	0.32	-1.57799E-001	-2.25645E-001	-1.91722E-001	6.12181E-006	-5.77731E-006	1.18991E-005	-2.17000E-001	2.36873E-004	7	..........a	-327.68
	80	0.324	-1.55799E-001	-2.23670E-001	-1.89735E-001	6.09698E-006	-5.75672E-006	1.18537E-005	-2.15000E-001	2.24373E-004	7	..........a	-327.68
	81	0.328	-1.53691E-001	-2.21703E-001	-1.87697E-001	6.07672E-006	-5.74247E-006	1.18192E-005	-2.13000E-001	2.16039E-004	7	..........a	-327.68
	82	0.332	-1.51724E-001	-2.19728E-001	-1.85726E-001	6.05355E-006	-5.72488E-006	1.17784E-005	-2.11000E-001	2.16039E-004	7	..........a	-327.68
	83	0.336	-1.49741E-001	-2.17716E-001	-1.83728E-001	6.03655E-006	-5.70638E-006	1.17429E-005	-2.09000E-001	1.99373E-004	7	..........a	-327.68
	84	0.34	-1.47753E-001	-2.15674E-001	-1.81714E-001	6.01246E-006	-5.68830E-006	1.17008E-005	-2.07000E-001	1.82706E-004	7	..........a	-327.68
	85	0.344	-1.45737E-001	-2.13799E-001	-1.79768E-001	6.00080E-006	-5.68180E-006	1.16826E-005	-2.05000E-001	2.11873E-004	7	..........a	-327.68
	86	0.348	-1.43724E-001	-2.11787E-001	-1.77755E-001	5.98171E-006	-5.66329E-006	1.16450E-005	-2.03000E-001	1.82706E-004	7	..........a	-327.68
	87	0.352	-1.41712E-001	-2.09812E-001	-1.75762E-001	5.96879E-006	-5.65146E-006	1.16203E-005	-2.01000E-001	2.32706E-004	7	..........a	-327.68
	88	0.356	-1.39583E-001	-2.07716E-001	-1.73649E-001	5.95371E-006	-5.64296E-006	1.15967E-005	-1.99000E-001	1.66039E-004	7	..........a	-327.68
	89	0.36	-1.37616E-001	-2.05816E-001	-1.71716E-001	5.94137E-006	-5.63429E-006	1.15757E-005	-1.97000E-001	2.03539E-004	7	..........a	-327.68
	90	0.364	-1.35649E-001	-2.03820E-001	-1.69735E-001	5.93787E-006	-5.62721E-006	1.15651E-005	-1.95000E-001	2.16039E-004	7	..........a	-327.68
	91	0.368	-1.33699E-001	-2.01837E-001	-1.67768E-001	5.91929E-006	-5.61720E-006	1.15365E-005	-1.93000E-001	2.11873E-004	7	..........a	-327.68
	92	0.372	-1.31658E-001	-1.99774E-001	-1.65716E-001	5.91195E-006	-5.60445E-006	1.15164E-005	-1.91000E-001	1.86873E-004	7	..........a	-327.68
	93	0.376	-1.29670E-001	-1.97824E-001	-1.63747E-001	5.90562E-006	-5.60078E-006	1.15064E-005	-1.89000E-001	1.91039E-004	7	..........a	-327.68
	94	0.38	-1.27687E-001	-1.95891E-001	-1.61789E-001	5.89562E-006	-5.59562E-006	1.14912E-005	-1.87000E-001	1.95206E-004	7	..........a	-327.68
	95	0.384	-1.25728E-001	-1.93783E-001	-1.59755E-001	5.88928E-006	-5.58695E-006	1.14762E-005	-1.85000E-001	1.99373E-004	7	..........a	-327.68
	96	0.388	-1.23708E-001	-1.91720E-001	-1.57714E-001	5.88111E-006	-5.58195E-006	1.14631E-005	-1.83000E-001	2.11873E-004	7	..........a	-327.68
	97	0.392	-1.21695E-001	-1.89849E-001	-1.55772E-001	5.87561E-006	-5.57945E-006	1.14551E-005	-1.81000E-001	1.99373E-004	7	..........a	-327.68
	98	0.396	-1.19683E-001	-1.87866E-001	-1.53774E-001	5.87103E-006	-5.58370E-006	1.14547E-005	-1.79000E-001	2.28539E-004	7	..........a	-327.68
	99	0.4	-1.17633E-001	-1.85808E-001	-1.51720E-001	5.87428E-006	-5.57703E-006	1.14513E-005	-1.77000E-001	1.86873E-004	7	..........a	-327.68
	100	0.404	-1.15699E-001	-1.83778E-001	-1.49739E-001	5.85878E-006	-5.57153E-006	1.14303E-005	-1.75000E-001	1.99373E-004	7	..........a	-327.68
