EXPLAIN
TAG	SQUARE_WAVE
TITLE	LABEL	Square Wave Voltammetry	Test Identifier
DATE	LABEL	8/31/2020	Date
TIME	LABEL	14:54:22	Time
NOTES	NOTES	1	Notes...
	
PSTAT	PSTAT	REF600-24079	Potentiostat
VINIT	QUANT	-3.50000E-001	Initial E (V)
VFINAL	QUANT	-1.50000E-001	Final E (V)
STEPSIZE	QUANT	2.00000E+000	Step Size (mV)
TIMERRES	QUANT	3.33340E-005	&Timer Resolution
FREQUENCY	QUANT	1.00000E+001	Frequency (Hz)
PULSESIZE	QUANT	2.50000E+001	Pulse Size E (mV)
PULSEON	QUANT	1.00000E-001	Pulse &Time (s)
NOISEREJECT	TOGGLE	F	Noise Rejection
AREA	QUANT	2.00000E-002	Sample Area (cm^2)
IMODE	SELECTOR	1	I/E Range Mode
IRANGE	QUANT	1.00000E-003	Max Current (mA)
EQDELAY	IQUANT	10	Equil. Time (s)
IRCOMP	SELECTOR	0	IRComp
PFCOR	QUANT	5.00000E+001	PF Corr. (ohm)
CYCLES	IQUANT	101	C&ycles (#)
ELECTRODETYPE	SELECTOR	0	Electrode Type
STRIPPING	TOGGLE	F	Used for Stripping
POLARITY	TOGGLE	F	Signal Polarity
LINEFREQ	IQUANT	60	Line Frequency (Hz)
INTPERIOD	QUANT	3.3334E-005	Integration Period (s)
SEQUENCER	TOGGLE	TRUE	Run as Sequence
PSTATMODEL	IQUANT	4	Pstat Model
PSTATSECTION	LABEL	REF600-24079	Pstat Section
PSTATSERIALNO	LABEL	24079	Pstat Serial Number
CTRLMODE	IQUANT	1	Control Mode
ELECTROMETER	IQUANT	0	RE=0 or CS=1
IESTAB	IQUANT	2	I/E Stability
CASPEED	IQUANT	6	Control Amp Speed
CONVENTION	IQUANT	1	Current Convention
ICHRANGE	IQUANT	2	Ich Range
ICHRANGEMODE	TOGGLE	F	Ich Auto Range
ICHOFFSETENABLE	TOGGLE	F	Ich Offset Enable
ICHOFFSET	QUANT	0	Ich Offset (V)
ICHFILTER	IQUANT	2	Ich Filter
VCHRANGE	IQUANT	2	Vch Range
VCHRANGEMODE	TOGGLE	F	Vch Auto Range
VCHOFFSETENABLE	TOGGLE	F	Vch Offset Enable
VCHOFFSET	QUANT	0	Vch Offset (V)
VCHFILTER	IQUANT	2	Vch Filter
ACHRANGE	IQUANT	2	Ach Range
ACHOFFSETENABLE	TOGGLE	F	Ach Offset Enable
ACHOFFSET	QUANT	0	Ach Offset (V)
ACHFILTER	IQUANT	1	Ach Filter
IERANGELOWERLIMIT	IQUANT	1	I/E Range Lower Limit
IERANGEMODE	TOGGLE	F	I/E AutoRange
IERANGE	IQUANT	6	I/E Range
POSFEEDENABLE	TOGGLE	F	Positive Feedback IR Comp
POSFEEDRESISTANCE	QUANT	0	Positive Feedback Resistance (ohm)
ACHSELECT	IQUANT	0	Ach Select
SENSECABLEID	IQUANT	13	Sense Cable ID
PWRCABLEID	IQUANT	13	Power Cable ID
DCCALDATE	LABEL	6/30/2020	DC Calibration Date
ACCALDATE	LABEL	6/30/2020	AC Calibration Date
THERMOSELECT	IQUANT	1	Thermo Select
FRAMEWORKVERSION	LABEL	7.8.2	Framework Version
INSTRUMENTVERSION	LABEL	4.40	Instrument Version
CURVE	TABLE	101
	Pt	T	Vfwd	Vrev	Vstep	Ifwd	Irev	Idif	Sig	Ach	IERange	Over	Temp
	#	s	V	V	V	A	A	A	V	V	#	bits	deg C
	0	0.1	-3.24852E-001	-3.74883E-001	-3.49867E-001	-1.38058E-008	-4.83429E-008	3.45371E-008	-3.75000E-001	3.47206E-004	6	..........a	-327.68
	1	0.2	-3.22854E-001	-3.72894E-001	-3.47874E-001	2.51615E-010	-4.30309E-008	4.32825E-008	-3.73000E-001	3.40039E-004	6	..........a	-327.68
	2	0.3	-3.20877E-001	-3.70797E-001	-3.45837E-001	2.95363E-009	-4.09366E-008	4.38902E-008	-3.71000E-001	3.29206E-004	6	..........a	-327.68
	3	0.4	-3.18849E-001	-3.68881E-001	-3.43865E-001	4.62150E-009	-3.96648E-008	4.42863E-008	-3.69000E-001	3.17039E-004	6	..........a	-327.68
	4	0.5	-3.16756E-001	-3.66921E-001	-3.41838E-001	5.83633E-009	-3.88807E-008	4.47170E-008	-3.67000E-001	3.44039E-004	6	..........a	-327.68
	5	0.6	-3.14871E-001	-3.64797E-001	-3.39834E-001	6.94880E-009	-3.81183E-008	4.50671E-008	-3.65000E-001	3.33206E-004	6	..........a	-327.68
	6	0.7	-3.12869E-001	-3.62815E-001	-3.37842E-001	7.85325E-009	-3.74375E-008	4.52908E-008	-3.63000E-001	3.42539E-004	6	..........a	-327.68
	7	0.8	-3.10881E-001	-3.60843E-001	-3.35862E-001	8.91538E-009	-3.69408E-008	4.58562E-008	-3.61000E-001	3.36539E-004	6	..........a	-327.68
	8	0.9	-3.08794E-001	-3.58870E-001	-3.33832E-001	9.73149E-009	-3.66321E-008	4.63636E-008	-3.59000E-001	3.21373E-004	6	..........a	-327.68
	9	1	-3.06801E-001	-3.56821E-001	-3.31811E-001	1.04823E-008	-3.63994E-008	4.68816E-008	-3.57000E-001	3.27039E-004	6	..........a	-327.68
	10	1.1	-3.04855E-001	-3.54827E-001	-3.29841E-001	1.14374E-008	-3.60483E-008	4.74857E-008	-3.55000E-001	3.38206E-004	6	..........a	-327.68
	11	1.2	-3.02889E-001	-3.52869E-001	-3.27879E-001	1.23098E-008	-3.59513E-008	4.82611E-008	-3.53000E-001	3.33706E-004	6	..........a	-327.68
	12	1.3	-3.00856E-001	-3.50883E-001	-3.25869E-001	1.34980E-008	-3.58323E-008	4.93303E-008	-3.51000E-001	3.30373E-004	6	..........a	-327.68
	13	1.4	-2.98834E-001	-3.48866E-001	-3.23850E-001	1.46735E-008	-3.58736E-008	5.05471E-008	-3.49000E-001	3.32539E-004	6	..........a	-327.68
	14	1.5	-2.96866E-001	-3.46871E-001	-3.21869E-001	1.57786E-008	-3.57636E-008	5.15422E-008	-3.47000E-001	3.39373E-004	6	..........a	-327.68
	15	1.6	-2.94887E-001	-3.44828E-001	-3.19857E-001	1.72171E-008	-3.61070E-008	5.33241E-008	-3.45000E-001	3.36039E-004	6	..........a	-327.68
	16	1.7	-2.92847E-001	-3.42898E-001	-3.17872E-001	1.83973E-008	-3.63874E-008	5.47846E-008	-3.43000E-001	3.20039E-004	6	..........a	-327.68
	17	1.8	-2.90809E-001	-3.40805E-001	-3.15807E-001	1.99645E-008	-3.69001E-008	5.68646E-008	-3.41000E-001	3.30373E-004	6	..........a	-327.68
	18	1.9	-2.88891E-001	-3.38838E-001	-3.13865E-001	2.17754E-008	-3.72382E-008	5.90135E-008	-3.39000E-001	3.30039E-004	6	..........a	-327.68
	19	2	-2.86889E-001	-3.36846E-001	-3.11867E-001	2.33949E-008	-3.76662E-008	6.10611E-008	-3.37000E-001	3.39373E-004	6	..........a	-327.68
	20	2.1	-2.84804E-001	-3.34880E-001	-3.09842E-001	2.53128E-008	-3.84513E-008	6.37641E-008	-3.35000E-001	3.37373E-004	6	..........a	-327.68
	21	2.2	-2.82817E-001	-3.32785E-001	-3.07801E-001	2.72167E-008	-3.93441E-008	6.65608E-008	-3.33000E-001	3.44206E-004	6	..........a	-327.68
	22	2.3	-2.80879E-001	-3.30819E-001	-3.05849E-001	2.95363E-008	-4.02172E-008	6.97535E-008	-3.31000E-001	3.44206E-004	6	..........a	-327.68
	23	2.4	-2.78875E-001	-3.28879E-001	-3.03877E-001	3.16909E-008	-4.14700E-008	7.31610E-008	-3.29000E-001	3.44039E-004	6	..........a	-327.68
	24	2.5	-2.76830E-001	-3.26878E-001	-3.01854E-001	3.39326E-008	-4.26208E-008	7.65534E-008	-3.27000E-001	3.32373E-004	6	..........a	-327.68
	25	2.6	-2.74844E-001	-3.24875E-001	-2.99860E-001	3.62709E-008	-4.40904E-008	8.03612E-008	-3.25000E-001	3.46206E-004	6	..........a	-327.68
	26	2.7	-2.72876E-001	-3.22861E-001	-2.97869E-001	3.88609E-008	-4.56756E-008	8.45364E-008	-3.23000E-001	3.57039E-004	6	..........a	-327.68
	27	2.8	-2.70873E-001	-3.20882E-001	-2.95877E-001	4.12675E-008	-4.74325E-008	8.86999E-008	-3.21000E-001	3.45373E-004	6	..........a	-327.68
	28	2.9	-2.68865E-001	-3.18859E-001	-2.93862E-001	4.38228E-008	-4.91903E-008	9.30132E-008	-3.19000E-001	3.50206E-004	6	..........a	-327.68
	29	3	-2.66884E-001	-3.16811E-001	-2.91848E-001	4.62525E-008	-5.11856E-008	9.74381E-008	-3.17000E-001	3.43539E-004	6	..........a	-327.68
	30	3.1	-2.64872E-001	-3.14880E-001	-2.89876E-001	4.87765E-008	-5.34252E-008	1.02202E-007	-3.15000E-001	3.42039E-004	6	..........a	-327.68
	31	3.2	-2.62884E-001	-3.12881E-001	-2.87882E-001	5.11518E-008	-5.57038E-008	1.06856E-007	-3.13000E-001	3.47873E-004	6	..........a	-327.68
	32	3.3	-2.60808E-001	-3.10874E-001	-2.85841E-001	5.33787E-008	-5.81008E-008	1.11480E-007	-3.11000E-001	3.59039E-004	6	..........a	-327.68
	33	3.4	-2.58808E-001	-3.08855E-001	-2.83832E-001	5.55213E-008	-6.05668E-008	1.16088E-007	-3.09000E-001	3.39539E-004	6	..........a	-327.68
	34	3.5	-2.56833E-001	-3.06853E-001	-2.81843E-001	5.73895E-008	-6.30871E-008	1.20477E-007	-3.07000E-001	3.42039E-004	6	..........a	-327.68
	35	3.6	-2.54888E-001	-3.04887E-001	-2.79888E-001	5.89498E-008	-6.56404E-008	1.24590E-007	-3.05000E-001	3.21539E-004	6	..........a	-327.68
	36	3.7	-2.52823E-001	-3.02903E-001	-2.77863E-001	6.03966E-008	-6.81308E-008	1.28527E-007	-3.03000E-001	3.47706E-004	6	..........a	-327.68
	37	3.8	-2.50824E-001	-3.00896E-001	-2.75860E-001	6.14504E-008	-7.06867E-008	1.32137E-007	-3.01000E-001	3.44039E-004	6	..........a	-327.68
	38	3.9	-2.48865E-001	-2.98855E-001	-2.73860E-001	6.22145E-008	-7.32037E-008	1.35418E-007	-2.99000E-001	3.39706E-004	6	..........a	-327.68
	39	4	-2.46878E-001	-2.96888E-001	-2.71883E-001	6.28689E-008	-7.53873E-008	1.38256E-007	-2.97000E-001	3.39706E-004	6	..........a	-327.68
	40	4.1	-2.44854E-001	-2.94871E-001	-2.69863E-001	6.31943E-008	-7.75546E-008	1.40749E-007	-2.95000E-001	3.46039E-004	6	..........a	-327.68
	41	4.2	-2.42746E-001	-2.92913E-001	-2.67829E-001	6.31176E-008	-7.93912E-008	1.42509E-007	-2.93000E-001	3.35539E-004	6	..........a	-327.68
	42	4.3	-2.40866E-001	-2.90830E-001	-2.65848E-001	6.26482E-008	-8.09634E-008	1.43612E-007	-2.91000E-001	3.31039E-004	6	..........a	-327.68
	43	4.4	-2.38874E-001	-2.88907E-001	-2.63891E-001	6.21882E-008	-8.21339E-008	1.44322E-007	-2.89000E-001	3.33039E-004	6	..........a	-327.68
	44	4.5	-2.36810E-001	-2.86886E-001	-2.61848E-001	6.14934E-008	-8.31503E-008	1.44644E-007	-2.87000E-001	3.24373E-004	6	..........a	-327.68
	45	4.6	-2.34801E-001	-2.84831E-001	-2.59816E-001	6.01382E-008	-8.39368E-008	1.44075E-007	-2.85000E-001	3.42039E-004	6	..........a	-327.68
	46	4.7	-2.32829E-001	-2.82817E-001	-2.57823E-001	5.90411E-008	-8.41301E-008	1.43171E-007	-2.83000E-001	3.29206E-004	6	..........a	-327.68
	47	4.8	-2.30834E-001	-2.80885E-001	-2.55860E-001	5.75802E-008	-8.39501E-008	1.41530E-007	-2.81000E-001	3.50039E-004	6	..........a	-327.68
	48	4.9	-2.28783E-001	-2.78886E-001	-2.53834E-001	5.60524E-008	-8.35284E-008	1.39581E-007	-2.79000E-001	3.42706E-004	6	..........a	-327.68
	49	5	-2.26808E-001	-2.76869E-001	-2.51838E-001	5.45915E-008	-8.25593E-008	1.37151E-007	-2.77000E-001	3.49373E-004	6	..........a	-327.68
	50	5.1	-2.24856E-001	-2.74855E-001	-2.49856E-001	5.26990E-008	-8.11998E-008	1.33899E-007	-2.75000E-001	3.46539E-004	6	..........a	-327.68
	51	5.2	-2.22858E-001	-2.72880E-001	-2.47869E-001	5.08634E-008	-7.97996E-008	1.30663E-007	-2.73000E-001	3.45206E-004	6	..........a	-327.68
	52	5.3	-2.20851E-001	-2.70878E-001	-2.45865E-001	4.91152E-008	-7.79390E-008	1.27054E-007	-2.71000E-001	3.46039E-004	6	..........a	-327.68
	53	5.4	-2.18853E-001	-2.68886E-001	-2.43869E-001	4.74326E-008	-7.54527E-008	1.22885E-007	-2.69000E-001	3.48206E-004	6	..........a	-327.68
	54	5.5	-2.16844E-001	-2.66864E-001	-2.41854E-001	4.53760E-008	-7.33164E-008	1.18692E-007	-2.67000E-001	3.40206E-004	6	..........a	-327.68
	55	5.6	-2.14883E-001	-2.64893E-001	-2.39888E-001	4.36745E-008	-7.04824E-008	1.14157E-007	-2.65000E-001	3.51206E-004	6	..........a	-327.68
	56	5.7	-2.12800E-001	-2.62865E-001	-2.37832E-001	4.21573E-008	-6.78374E-008	1.09995E-007	-2.63000E-001	3.56873E-004	6	..........a	-327.68
	57	5.8	-2.10837E-001	-2.60785E-001	-2.35811E-001	4.04547E-008	-6.50177E-008	1.05472E-007	-2.61000E-001	3.49706E-004	6	..........a	-327.68
	58	5.9	-2.08853E-001	-2.58832E-001	-2.33842E-001	3.88235E-008	-6.20970E-008	1.00921E-007	-2.59000E-001	3.67206E-004	6	..........a	-327.68
	59	6	-2.06877E-001	-2.56875E-001	-2.31876E-001	3.72380E-008	-5.91119E-008	9.63499E-008	-2.57000E-001	3.62373E-004	6	..........a	-327.68
	60	6.1	-2.04809E-001	-2.54884E-001	-2.29847E-001	3.58388E-008	-5.60579E-008	9.18967E-008	-2.55000E-001	3.57873E-004	6	..........a	-327.68
	61	6.2	-2.02830E-001	-2.52862E-001	-2.27846E-001	3.43733E-008	-5.29075E-008	8.72808E-008	-2.53000E-001	3.60206E-004	6	..........a	-327.68
	62	6.3	-2.00862E-001	-2.50846E-001	-2.25854E-001	3.30631E-008	-5.03592E-008	8.34223E-008	-2.51000E-001	3.66873E-004	6	..........a	-327.68
	63	6.4	-1.98881E-001	-2.48878E-001	-2.23880E-001	3.20637E-008	-4.75058E-008	7.95695E-008	-2.49000E-001	3.44039E-004	6	..........a	-327.68
	64	6.5	-1.96864E-001	-2.46873E-001	-2.21869E-001	3.07898E-008	-4.49088E-008	7.56986E-008	-2.47000E-001	3.46373E-004	6	..........a	-327.68
	65	6.6	-1.94850E-001	-2.44878E-001	-2.19864E-001	3.00487E-008	-4.21971E-008	7.22459E-008	-2.45000E-001	3.55039E-004	6	..........a	-327.68
	66	6.7	-1.92879E-001	-2.42789E-001	-2.17834E-001	2.88616E-008	-3.99242E-008	6.87858E-008	-2.43000E-001	3.50373E-004	6	..........a	-327.68
	67	6.8	-1.90855E-001	-2.40867E-001	-2.15861E-001	2.81732E-008	-3.76599E-008	6.58330E-008	-2.41000E-001	3.32539E-004	6	..........a	-327.68
	68	6.9	-1.88767E-001	-2.38907E-001	-2.13837E-001	2.73797E-008	-3.52962E-008	6.26760E-008	-2.39000E-001	3.37039E-004	6	..........a	-327.68
	69	7	-1.86830E-001	-2.36843E-001	-2.11837E-001	2.65760E-008	-3.33893E-008	5.99653E-008	-2.37000E-001	3.21373E-004	6	..........a	-327.68
	70	7.1	-1.84866E-001	-2.34814E-001	-2.09840E-001	2.59025E-008	-3.15721E-008	5.74746E-008	-2.35000E-001	3.49706E-004	6	..........a	-327.68
	71	7.2	-1.82857E-001	-2.32848E-001	-2.07852E-001	2.55078E-008	-3.01806E-008	5.56884E-008	-2.33000E-001	3.53373E-004	6	..........a	-327.68
	72	7.3	-1.80804E-001	-2.30872E-001	-2.05838E-001	2.47514E-008	-2.86181E-008	5.33695E-008	-2.31000E-001	3.39039E-004	6	..........a	-327.68
	73	7.4	-1.78813E-001	-2.28811E-001	-2.03812E-001	2.45507E-008	-2.72786E-008	5.18293E-008	-2.29000E-001	3.36706E-004	6	..........a	-327.68
	74	7.5	-1.76853E-001	-2.26838E-001	-2.01846E-001	2.40993E-008	-2.57947E-008	4.98940E-008	-2.27000E-001	3.40206E-004	6	..........a	-327.68
	75	7.6	-1.74869E-001	-2.24862E-001	-1.99866E-001	2.37833E-008	-2.49456E-008	4.87289E-008	-2.25000E-001	3.55706E-004	6	..........a	-327.68
	76	7.7	-1.72841E-001	-2.22861E-001	-1.97851E-001	2.33109E-008	-2.36981E-008	4.70090E-008	-2.23000E-001	3.38873E-004	6	..........a	-327.68
	77	7.8	-1.70835E-001	-2.20865E-001	-1.95850E-001	2.30272E-008	-2.28953E-008	4.59225E-008	-2.21000E-001	3.42873E-004	6	..........a	-327.68
	78	7.9	-1.68857E-001	-2.18869E-001	-1.93863E-001	2.29335E-008	-2.19402E-008	4.48737E-008	-2.19000E-001	3.35706E-004	6	..........a	-327.68
	79	8	-1.66875E-001	-2.16884E-001	-1.91880E-001	2.26535E-008	-2.14301E-008	4.40836E-008	-2.17000E-001	3.38039E-004	6	..........a	-327.68
	80	8.1	-1.64837E-001	-2.14885E-001	-1.89861E-001	2.25778E-008	-2.07687E-008	4.33465E-008	-2.15000E-001	3.51706E-004	6	..........a	-327.68
	81	8.2	-1.62807E-001	-2.12853E-001	-1.87830E-001	2.21697E-008	-2.01486E-008	4.23184E-008	-2.13000E-001	3.33539E-004	6	..........a	-327.68
	82	8.3	-1.60881E-001	-2.10842E-001	-1.85861E-001	2.21784E-008	-1.93682E-008	4.15466E-008	-2.11000E-001	3.34373E-004	6	..........a	-327.68
	83	8.4	-1.58871E-001	-2.08857E-001	-1.83864E-001	2.21011E-008	-1.89508E-008	4.10519E-008	-2.09000E-001	3.32373E-004	6	..........a	-327.68
	84	8.5	-1.56801E-001	-2.06862E-001	-1.81832E-001	2.20341E-008	-1.84788E-008	4.05128E-008	-2.07000E-001	3.42039E-004	6	..........a	-327.68
	85	8.6	-1.54808E-001	-2.04816E-001	-1.79812E-001	2.20437E-008	-1.81777E-008	4.02215E-008	-2.05000E-001	3.42873E-004	6	..........a	-327.68
	86	8.7	-1.52866E-001	-2.02829E-001	-1.77847E-001	2.19260E-008	-1.77563E-008	3.96824E-008	-2.03000E-001	3.36206E-004	6	..........a	-327.68
	87	8.8	-1.50877E-001	-2.00861E-001	-1.75869E-001	2.20374E-008	-1.73553E-008	3.93927E-008	-2.01000E-001	3.42539E-004	6	..........a	-327.68
	88	8.9	-1.48844E-001	-1.98875E-001	-1.73859E-001	2.19140E-008	-1.71379E-008	3.90520E-008	-1.99000E-001	3.42039E-004	6	..........a	-327.68
	89	9	-1.46836E-001	-1.96847E-001	-1.71842E-001	2.19087E-008	-1.68962E-008	3.88049E-008	-1.97000E-001	3.41206E-004	6	..........a	-327.68
	90	9.1	-1.44865E-001	-1.94857E-001	-1.69861E-001	2.19550E-008	-1.65595E-008	3.85146E-008	-1.95000E-001	3.35373E-004	6	..........a	-327.68
	91	9.2	-1.42873E-001	-1.92883E-001	-1.67878E-001	2.20817E-008	-1.63142E-008	3.83959E-008	-1.93000E-001	3.48039E-004	6	..........a	-327.68
	92	9.3	-1.40854E-001	-1.90869E-001	-1.65861E-001	2.18847E-008	-1.60405E-008	3.79252E-008	-1.91000E-001	3.48873E-004	6	..........a	-327.68
	93	9.4	-1.38898E-001	-1.88725E-001	-1.63812E-001	2.20261E-008	-1.57014E-008	3.77275E-008	-1.89000E-001	3.51873E-004	6	..........a	-327.68
	94	9.5	-1.36853E-001	-1.86831E-001	-1.61842E-001	2.20697E-008	-1.55284E-008	3.75981E-008	-1.87000E-001	3.37206E-004	6	..........a	-327.68
	95	9.6	-1.34856E-001	-1.84874E-001	-1.59865E-001	2.20867E-008	-1.53934E-008	3.74801E-008	-1.85000E-001	3.49039E-004	6	..........a	-327.68
	96	9.7	-1.32761E-001	-1.82855E-001	-1.57808E-001	2.21737E-008	-1.53717E-008	3.75454E-008	-1.83000E-001	3.64873E-004	6	..........a	-327.68
	97	9.8	-1.30804E-001	-1.80772E-001	-1.55788E-001	2.22147E-008	-1.51430E-008	3.73578E-008	-1.81000E-001	3.60039E-004	6	..........a	-327.68
	98	9.9	-1.28833E-001	-1.78821E-001	-1.53827E-001	2.23691E-008	-1.49377E-008	3.73067E-008	-1.79000E-001	3.45039E-004	6	..........a	-327.68
	99	10	-1.26868E-001	-1.76844E-001	-1.51856E-001	2.24314E-008	-1.46396E-008	3.70711E-008	-1.77000E-001	3.33039E-004	6	..........a	-327.68
	100	10.1	-1.24794E-001	-1.74861E-001	-1.49828E-001	2.24958E-008	-1.45069E-008	3.70027E-008	-1.75000E-001	3.40373E-004	6	..........a	-327.68
