EXPLAIN
TAG	SQUARE_WAVE
TITLE	LABEL	Square Wave Voltammetry	Test Identifier
DATE	LABEL	8/25/2020	Date
TIME	LABEL	13:34:38	Time
NOTES	NOTES	1	Notes...
	
PSTAT	PSTAT	REF600-24079	Potentiostat
VINIT	QUANT	-3.50000E-001	Initial E (V)
VFINAL	QUANT	-1.50000E-001	Final E (V)
STEPSIZE	QUANT	2.00000E+000	Step Size (mV)
TIMERRES	QUANT	3.33340E-005	&Timer Resolution
FREQUENCY	QUANT	5.00000E+001	Frequency (Hz)
PULSESIZE	QUANT	2.50000E+001	Pulse Size E (mV)
PULSEON	QUANT	2.00000E-002	Pulse &Time (s)
NOISEREJECT	TOGGLE	F	Noise Rejection
AREA	QUANT	2.00000E-002	Sample Area (cm^2)
IMODE	SELECTOR	1	I/E Range Mode
IRANGE	QUANT	1.00000E-003	Max Current (mA)
EQDELAY	IQUANT	10	Equil. Time (s)
IRCOMP	SELECTOR	0	IRComp
PFCOR	QUANT	5.00000E+001	PF Corr. (ohm)
CYCLES	IQUANT	101	C&ycles (#)
ELECTRODETYPE	SELECTOR	0	Electrode Type
STRIPPING	TOGGLE	F	Used for Stripping
POLARITY	TOGGLE	F	Signal Polarity
LINEFREQ	IQUANT	60	Line Frequency (Hz)
INTPERIOD	QUANT	3.3334E-005	Integration Period (s)
SEQUENCER	TOGGLE	TRUE	Run as Sequence
PSTATMODEL	IQUANT	4	Pstat Model
PSTATSECTION	LABEL	REF600-24079	Pstat Section
PSTATSERIALNO	LABEL	24079	Pstat Serial Number
CTRLMODE	IQUANT	1	Control Mode
ELECTROMETER	IQUANT	0	RE=0 or CS=1
IESTAB	IQUANT	2	I/E Stability
CASPEED	IQUANT	6	Control Amp Speed
CONVENTION	IQUANT	1	Current Convention
ICHRANGE	IQUANT	2	Ich Range
ICHRANGEMODE	TOGGLE	F	Ich Auto Range
ICHOFFSETENABLE	TOGGLE	F	Ich Offset Enable
ICHOFFSET	QUANT	0	Ich Offset (V)
ICHFILTER	IQUANT	2	Ich Filter
VCHRANGE	IQUANT	2	Vch Range
VCHRANGEMODE	TOGGLE	F	Vch Auto Range
VCHOFFSETENABLE	TOGGLE	F	Vch Offset Enable
VCHOFFSET	QUANT	0	Vch Offset (V)
VCHFILTER	IQUANT	2	Vch Filter
ACHRANGE	IQUANT	2	Ach Range
ACHOFFSETENABLE	TOGGLE	F	Ach Offset Enable
ACHOFFSET	QUANT	0	Ach Offset (V)
ACHFILTER	IQUANT	1	Ach Filter
IERANGELOWERLIMIT	IQUANT	1	I/E Range Lower Limit
IERANGEMODE	TOGGLE	F	I/E AutoRange
IERANGE	IQUANT	6	I/E Range
POSFEEDENABLE	TOGGLE	F	Positive Feedback IR Comp
POSFEEDRESISTANCE	QUANT	0	Positive Feedback Resistance (ohm)
ACHSELECT	IQUANT	0	Ach Select
SENSECABLEID	IQUANT	13	Sense Cable ID
PWRCABLEID	IQUANT	13	Power Cable ID
DCCALDATE	LABEL	6/30/2020	DC Calibration Date
ACCALDATE	LABEL	6/30/2020	AC Calibration Date
THERMOSELECT	IQUANT	1	Thermo Select
FRAMEWORKVERSION	LABEL	7.8.2	Framework Version
INSTRUMENTVERSION	LABEL	4.40	Instrument Version
CURVE	TABLE	101
	Pt	T	Vfwd	Vrev	Vstep	Ifwd	Irev	Idif	Sig	Ach	IERange	Over	Temp
	#	s	V	V	V	A	A	A	V	V	#	bits	deg C
	0	0.02	-3.24886E-001	-3.73851E-001	-3.49368E-001	-8.13879E-009	1.22495E-006	-1.23309E-006	-3.75000E-001	4.36039E-004	6	..........a	-327.68
	1	0.04	-3.24356E-001	-3.71441E-001	-3.47899E-001	-1.22255E-006	1.13751E-006	-2.36006E-006	-3.73000E-001	4.25206E-004	6	..........a	-327.68
	2	0.06	-3.22276E-001	-3.69440E-001	-3.45858E-001	-1.21509E-006	1.14430E-006	-2.35940E-006	-3.71000E-001	3.93539E-004	6	..........a	-327.68
	3	0.08	-3.20231E-001	-3.67460E-001	-3.43846E-001	-1.21129E-006	1.14601E-006	-2.35730E-006	-3.69000E-001	3.91039E-004	6	..........a	-327.68
	4	0.1	-3.18223E-001	-3.65463E-001	-3.41843E-001	-1.20746E-006	1.14752E-006	-2.35498E-006	-3.67000E-001	3.91039E-004	6	..........a	-327.68
	5	0.12	-3.16173E-001	-3.63438E-001	-3.39806E-001	-1.20514E-006	1.14800E-006	-2.35314E-006	-3.65000E-001	4.02706E-004	6	..........a	-327.68
	6	0.14	-3.14161E-001	-3.61450E-001	-3.37805E-001	-1.20307E-006	1.15076E-006	-2.35383E-006	-3.63000E-001	3.68539E-004	6	..........a	-327.68
	7	0.16	-3.12128E-001	-3.59465E-001	-3.35796E-001	-1.20186E-006	1.15150E-006	-2.35336E-006	-3.61000E-001	3.84373E-004	6	..........a	-327.68
	8	0.18	-3.10097E-001	-3.57461E-001	-3.33779E-001	-1.20022E-006	1.15191E-006	-2.35213E-006	-3.59000E-001	4.00206E-004	6	..........a	-327.68
	9	0.2	-3.08066E-001	-3.55483E-001	-3.31775E-001	-1.19718E-006	1.15080E-006	-2.34798E-006	-3.57000E-001	4.01873E-004	6	..........a	-327.68
	10	0.22	-3.06029E-001	-3.53494E-001	-3.29761E-001	-1.19435E-006	1.15103E-006	-2.34538E-006	-3.55000E-001	4.17706E-004	6	..........a	-327.68
	11	0.24	-3.04026E-001	-3.51501E-001	-3.27763E-001	-1.19310E-006	1.15234E-006	-2.34545E-006	-3.53000E-001	3.86039E-004	6	..........a	-327.68
	12	0.26	-3.01976E-001	-3.49511E-001	-3.25744E-001	-1.19093E-006	1.15241E-006	-2.34334E-006	-3.51000E-001	3.87706E-004	6	..........a	-327.68
	13	0.28	-2.99937E-001	-3.47526E-001	-3.23731E-001	-1.18863E-006	1.15196E-006	-2.34060E-006	-3.49000E-001	4.14373E-004	6	..........a	-327.68
	14	0.3	-2.97911E-001	-3.45536E-001	-3.21723E-001	-1.18503E-006	1.15130E-006	-2.33633E-006	-3.47000E-001	3.73539E-004	6	..........a	-327.68
	15	0.32	-2.95855E-001	-3.43548E-001	-3.19701E-001	-1.18059E-006	1.15024E-006	-2.33083E-006	-3.45000E-001	4.03539E-004	6	..........a	-327.68
	16	0.34	-2.93781E-001	-3.41588E-001	-3.17684E-001	-1.17796E-006	1.14911E-006	-2.32707E-006	-3.43000E-001	4.03539E-004	6	..........a	-327.68
	17	0.36	-2.91746E-001	-3.39598E-001	-3.15672E-001	-1.17489E-006	1.14840E-006	-2.32330E-006	-3.41000E-001	4.14373E-004	6	..........a	-327.68
	18	0.38	-2.89721E-001	-3.37589E-001	-3.13655E-001	-1.17087E-006	1.14711E-006	-2.31798E-006	-3.39000E-001	3.98539E-004	6	..........a	-327.68
	19	0.4	-2.87664E-001	-3.35618E-001	-3.11641E-001	-1.16523E-006	1.14462E-006	-2.30985E-006	-3.37000E-001	3.80206E-004	6	..........a	-327.68
	20	0.42	-2.85618E-001	-3.33673E-001	-3.09646E-001	-1.15969E-006	1.14206E-006	-2.30175E-006	-3.35000E-001	4.15206E-004	6	..........a	-327.68
	21	0.44	-2.83552E-001	-3.31680E-001	-3.07616E-001	-1.15492E-006	1.14033E-006	-2.29525E-006	-3.33000E-001	4.02706E-004	6	..........a	-327.68
	22	0.46	-2.81481E-001	-3.29731E-001	-3.05606E-001	-1.14946E-006	1.13755E-006	-2.28701E-006	-3.31000E-001	4.09373E-004	6	..........a	-327.68
	23	0.48	-2.79447E-001	-3.27746E-001	-3.03597E-001	-1.14396E-006	1.13399E-006	-2.27796E-006	-3.29000E-001	4.08539E-004	6	..........a	-327.68
	24	0.5	-2.77372E-001	-3.25774E-001	-3.01573E-001	-1.13677E-006	1.12959E-006	-2.26637E-006	-3.27000E-001	3.81039E-004	6	..........a	-327.68
	25	0.52	-2.75345E-001	-3.23813E-001	-2.99579E-001	-1.12882E-006	1.12477E-006	-2.25360E-006	-3.25000E-001	4.02706E-004	6	..........a	-327.68
	26	0.54	-2.73285E-001	-3.21854E-001	-2.97569E-001	-1.12268E-006	1.12089E-006	-2.24356E-006	-3.23000E-001	4.07706E-004	6	..........a	-327.68
	27	0.56	-2.71226E-001	-3.19868E-001	-2.95547E-001	-1.11519E-006	1.11623E-006	-2.23142E-006	-3.21000E-001	3.96873E-004	6	..........a	-327.68
	28	0.58	-2.69156E-001	-3.17923E-001	-2.93540E-001	-1.10815E-006	1.10978E-006	-2.21793E-006	-3.19000E-001	4.04373E-004	6	..........a	-327.68
	29	0.6	-2.67117E-001	-3.15971E-001	-2.91544E-001	-1.10054E-006	1.10306E-006	-2.20360E-006	-3.17000E-001	3.78539E-004	6	..........a	-327.68
	30	0.62	-2.65060E-001	-3.13990E-001	-2.89525E-001	-1.09217E-006	1.09627E-006	-2.18844E-006	-3.15000E-001	4.05206E-004	6	..........a	-327.68
	31	0.64	-2.63018E-001	-3.12019E-001	-2.87518E-001	-1.08525E-006	1.09005E-006	-2.17529E-006	-3.13000E-001	4.30206E-004	6	..........a	-327.68
	32	0.66	-2.60956E-001	-3.10051E-001	-2.85503E-001	-1.07810E-006	1.08323E-006	-2.16133E-006	-3.11000E-001	4.20206E-004	6	..........a	-327.68
	33	0.68	-2.58941E-001	-3.08075E-001	-2.83508E-001	-1.07138E-006	1.07488E-006	-2.14627E-006	-3.09000E-001	3.93539E-004	6	..........a	-327.68
	34	0.7	-2.56876E-001	-3.06121E-001	-2.81498E-001	-1.06408E-006	1.06666E-006	-2.13074E-006	-3.07000E-001	3.83539E-004	6	..........a	-327.68
	35	0.72	-2.54832E-001	-3.04154E-001	-2.79493E-001	-1.05753E-006	1.05826E-006	-2.11579E-006	-3.05000E-001	4.09373E-004	6	..........a	-327.68
	36	0.74	-2.52828E-001	-3.02196E-001	-2.77512E-001	-1.05317E-006	1.05061E-006	-2.10379E-006	-3.03000E-001	3.81039E-004	6	..........a	-327.68
	37	0.76	-2.50784E-001	-3.00219E-001	-2.75501E-001	-1.04879E-006	1.04366E-006	-2.09246E-006	-3.01000E-001	3.84373E-004	6	..........a	-327.68
	38	0.78	-2.48775E-001	-2.98231E-001	-2.73503E-001	-1.04557E-006	1.03536E-006	-2.08093E-006	-2.99000E-001	4.21873E-004	6	..........a	-327.68
	39	0.8	-2.46751E-001	-2.96259E-001	-2.71505E-001	-1.04168E-006	1.02760E-006	-2.06927E-006	-2.97000E-001	4.03539E-004	6	..........a	-327.68
	40	0.82	-2.44731E-001	-2.94270E-001	-2.69500E-001	-1.03893E-006	1.02092E-006	-2.05985E-006	-2.95000E-001	3.91873E-004	6	..........a	-327.68
	41	0.84	-2.42719E-001	-2.92284E-001	-2.67501E-001	-1.03855E-006	1.01433E-006	-2.05289E-006	-2.93000E-001	3.67706E-004	6	..........a	-327.68
	42	0.86	-2.40746E-001	-2.90284E-001	-2.65515E-001	-1.04003E-006	1.00959E-006	-2.04961E-006	-2.91000E-001	4.01873E-004	6	..........a	-327.68
	43	0.88	-2.38723E-001	-2.88294E-001	-2.63508E-001	-1.04076E-006	1.00252E-006	-2.04328E-006	-2.89000E-001	4.15206E-004	6	..........a	-327.68
	44	0.9	-2.36760E-001	-2.86289E-001	-2.61524E-001	-1.04177E-006	9.98236E-007	-2.04000E-006	-2.87000E-001	3.91873E-004	6	..........a	-327.68
	45	0.92	-2.34756E-001	-2.84296E-001	-2.59526E-001	-1.04393E-006	9.94369E-007	-2.03830E-006	-2.85000E-001	4.14373E-004	6	..........a	-327.68
	46	0.94	-2.32774E-001	-2.82271E-001	-2.57523E-001	-1.04846E-006	9.91255E-007	-2.03971E-006	-2.83000E-001	4.22706E-004	6	..........a	-327.68
	47	0.96	-2.30806E-001	-2.80289E-001	-2.55547E-001	-1.05301E-006	9.90352E-007	-2.04336E-006	-2.81000E-001	3.94373E-004	6	..........a	-327.68
	48	0.98	-2.28851E-001	-2.78301E-001	-2.53576E-001	-1.05873E-006	9.87778E-007	-2.04650E-006	-2.79000E-001	4.26039E-004	6	..........a	-327.68
	49	1	-2.26919E-001	-2.76255E-001	-2.51587E-001	-1.06345E-006	9.87006E-007	-2.05046E-006	-2.77000E-001	3.86039E-004	6	..........a	-327.68
	50	1.02	-2.24984E-001	-2.74251E-001	-2.49618E-001	-1.06863E-006	9.86870E-007	-2.05550E-006	-2.75000E-001	4.14373E-004	6	..........a	-327.68
	51	1.04	-2.23016E-001	-2.72240E-001	-2.47628E-001	-1.07588E-006	9.88018E-007	-2.06390E-006	-2.73000E-001	4.03539E-004	6	..........a	-327.68
	52	1.06	-2.21072E-001	-2.70227E-001	-2.45650E-001	-1.08256E-006	9.90267E-007	-2.07282E-006	-2.71000E-001	3.96039E-004	6	..........a	-327.68
	53	1.08	-2.19129E-001	-2.68190E-001	-2.43659E-001	-1.08896E-006	9.91608E-007	-2.08057E-006	-2.69000E-001	3.89373E-004	6	..........a	-327.68
	54	1.1	-2.17184E-001	-2.66183E-001	-2.41683E-001	-1.09429E-006	9.93962E-007	-2.08825E-006	-2.67000E-001	3.95206E-004	6	..........a	-327.68
	55	1.12	-2.15246E-001	-2.64146E-001	-2.39696E-001	-1.10039E-006	9.96459E-007	-2.09685E-006	-2.65000E-001	3.97706E-004	6	..........a	-327.68
	56	1.14	-2.13334E-001	-2.62137E-001	-2.37736E-001	-1.10768E-006	1.00093E-006	-2.10861E-006	-2.63000E-001	4.01039E-004	6	..........a	-327.68
	57	1.16	-2.11392E-001	-2.60111E-001	-2.35751E-001	-1.11348E-006	1.00638E-006	-2.11986E-006	-2.61000E-001	3.90206E-004	6	..........a	-327.68
	58	1.18	-2.09460E-001	-2.58051E-001	-2.33755E-001	-1.11907E-006	1.00968E-006	-2.12875E-006	-2.59000E-001	4.01873E-004	6	..........a	-327.68
	59	1.2	-2.07513E-001	-2.56050E-001	-2.31781E-001	-1.12333E-006	1.01408E-006	-2.13741E-006	-2.57000E-001	3.95206E-004	6	..........a	-327.68
	60	1.22	-2.05593E-001	-2.54017E-001	-2.29805E-001	-1.12771E-006	1.01852E-006	-2.14623E-006	-2.55000E-001	4.12706E-004	6	..........a	-327.68
	61	1.24	-2.03656E-001	-2.52019E-001	-2.27837E-001	-1.13254E-006	1.02492E-006	-2.15746E-006	-2.53000E-001	3.78539E-004	6	..........a	-327.68
	62	1.26	-2.01714E-001	-2.49978E-001	-2.25846E-001	-1.13681E-006	1.03052E-006	-2.16733E-006	-2.51000E-001	4.10206E-004	6	..........a	-327.68
	63	1.28	-1.99793E-001	-2.47926E-001	-2.23859E-001	-1.14117E-006	1.03512E-006	-2.17629E-006	-2.49000E-001	3.81039E-004	6	..........a	-327.68
	64	1.3	-1.97864E-001	-2.45909E-001	-2.21886E-001	-1.14281E-006	1.04009E-006	-2.18291E-006	-2.47000E-001	3.96873E-004	6	..........a	-327.68
	65	1.32	-1.95912E-001	-2.43884E-001	-2.19898E-001	-1.14549E-006	1.04511E-006	-2.19059E-006	-2.45000E-001	4.09373E-004	6	..........a	-327.68
	66	1.34	-1.93962E-001	-2.41823E-001	-2.17893E-001	-1.14806E-006	1.05129E-006	-2.19935E-006	-2.43000E-001	3.89373E-004	6	..........a	-327.68
	67	1.36	-1.92003E-001	-2.39835E-001	-2.15919E-001	-1.15029E-006	1.05593E-006	-2.20622E-006	-2.41000E-001	3.85206E-004	6	..........a	-327.68
	68	1.38	-1.90050E-001	-2.37818E-001	-2.13934E-001	-1.15297E-006	1.06102E-006	-2.21398E-006	-2.39000E-001	3.92706E-004	6	..........a	-327.68
	69	1.4	-1.88111E-001	-2.35748E-001	-2.11930E-001	-1.15380E-006	1.06511E-006	-2.21891E-006	-2.37000E-001	3.81873E-004	6	..........a	-327.68
	70	1.42	-1.86156E-001	-2.33735E-001	-2.09946E-001	-1.15384E-006	1.06971E-006	-2.22355E-006	-2.35000E-001	4.01873E-004	6	..........a	-327.68
	71	1.44	-1.84199E-001	-2.31720E-001	-2.07959E-001	-1.15598E-006	1.07504E-006	-2.23102E-006	-2.33000E-001	3.77706E-004	6	..........a	-327.68
	72	1.46	-1.82215E-001	-2.29693E-001	-2.05954E-001	-1.15652E-006	1.08009E-006	-2.23662E-006	-2.31000E-001	3.96039E-004	6	..........a	-327.68
	73	1.48	-1.80243E-001	-2.27648E-001	-2.03946E-001	-1.15692E-006	1.08352E-006	-2.24044E-006	-2.29000E-001	3.86873E-004	6	..........a	-327.68
	74	1.5	-1.78299E-001	-2.25621E-001	-2.01960E-001	-1.15619E-006	1.08650E-006	-2.24269E-006	-2.27000E-001	3.91873E-004	6	..........a	-327.68
	75	1.52	-1.76331E-001	-2.23620E-001	-1.99975E-001	-1.15598E-006	1.08894E-006	-2.24492E-006	-2.25000E-001	3.75206E-004	6	..........a	-327.68
	76	1.54	-1.74366E-001	-2.21592E-001	-1.97979E-001	-1.15692E-006	1.09364E-006	-2.25056E-006	-2.23000E-001	4.13539E-004	6	..........a	-327.68
	77	1.56	-1.72381E-001	-2.19563E-001	-1.95972E-001	-1.15709E-006	1.09759E-006	-2.25468E-006	-2.21000E-001	3.72706E-004	6	..........a	-327.68
	78	1.58	-1.70401E-001	-2.17544E-001	-1.93972E-001	-1.15797E-006	1.09958E-006	-2.25754E-006	-2.19000E-001	4.09373E-004	6	..........a	-327.68
	79	1.6	-1.68436E-001	-2.15498E-001	-1.91967E-001	-1.15613E-006	1.10189E-006	-2.25802E-006	-2.17000E-001	3.82706E-004	6	..........a	-327.68
	80	1.62	-1.66436E-001	-2.13515E-001	-1.89975E-001	-1.15567E-006	1.10413E-006	-2.25980E-006	-2.15000E-001	3.90206E-004	6	..........a	-327.68
	81	1.64	-1.64443E-001	-2.11493E-001	-1.87968E-001	-1.15654E-006	1.10652E-006	-2.26306E-006	-2.13000E-001	3.87706E-004	6	..........a	-327.68
	82	1.66	-1.62454E-001	-2.09467E-001	-1.85961E-001	-1.15679E-006	1.10994E-006	-2.26673E-006	-2.11000E-001	4.15206E-004	6	..........a	-327.68
	83	1.68	-1.60479E-001	-2.07449E-001	-1.83964E-001	-1.15679E-006	1.11101E-006	-2.26780E-006	-2.09000E-001	3.96039E-004	6	..........a	-327.68
	84	1.7	-1.58503E-001	-2.05425E-001	-1.81964E-001	-1.15577E-006	1.11216E-006	-2.26793E-006	-2.07000E-001	3.84373E-004	6	..........a	-327.68
	85	1.72	-1.56495E-001	-2.03416E-001	-1.79955E-001	-1.15467E-006	1.11348E-006	-2.26814E-006	-2.05000E-001	3.99373E-004	6	..........a	-327.68
	86	1.74	-1.54495E-001	-2.01401E-001	-1.77948E-001	-1.15495E-006	1.11603E-006	-2.27098E-006	-2.03000E-001	4.07706E-004	6	..........a	-327.68
	87	1.76	-1.52521E-001	-1.99391E-001	-1.75956E-001	-1.15620E-006	1.11790E-006	-2.27410E-006	-2.01000E-001	3.88539E-004	6	..........a	-327.68
	88	1.78	-1.50548E-001	-1.97382E-001	-1.73965E-001	-1.15575E-006	1.11777E-006	-2.27352E-006	-1.99000E-001	4.11873E-004	6	..........a	-327.68
	89	1.8	-1.48540E-001	-1.95355E-001	-1.71947E-001	-1.15485E-006	1.11856E-006	-2.27341E-006	-1.97000E-001	3.94373E-004	6	..........a	-327.68
	90	1.82	-1.46547E-001	-1.93338E-001	-1.69943E-001	-1.15405E-006	1.11936E-006	-2.27341E-006	-1.95000E-001	4.01873E-004	6	..........a	-327.68
	91	1.84	-1.44565E-001	-1.91351E-001	-1.67958E-001	-1.15458E-006	1.12094E-006	-2.27551E-006	-1.93000E-001	4.02706E-004	6	..........a	-327.68
	92	1.86	-1.42548E-001	-1.89286E-001	-1.65917E-001	-1.15469E-006	1.12236E-006	-2.27705E-006	-1.91000E-001	3.79373E-004	6	..........a	-327.68
	93	1.88	-1.40556E-001	-1.87311E-001	-1.63934E-001	-1.15494E-006	1.12204E-006	-2.27698E-006	-1.89000E-001	3.96039E-004	6	..........a	-327.68
	94	1.9	-1.38556E-001	-1.85303E-001	-1.61930E-001	-1.15406E-006	1.12266E-006	-2.27672E-006	-1.87000E-001	4.12706E-004	6	..........a	-327.68
	95	1.92	-1.36571E-001	-1.83290E-001	-1.59931E-001	-1.15370E-006	1.12298E-006	-2.27668E-006	-1.85000E-001	3.91873E-004	6	..........a	-327.68
	96	1.94	-1.34561E-001	-1.81272E-001	-1.57916E-001	-1.15419E-006	1.12352E-006	-2.27771E-006	-1.83000E-001	4.35206E-004	6	..........a	-327.68
	97	1.96	-1.32564E-001	-1.79263E-001	-1.55913E-001	-1.15516E-006	1.12542E-006	-2.28058E-006	-1.81000E-001	4.07706E-004	6	..........a	-327.68
	98	1.98	-1.30533E-001	-1.77264E-001	-1.53898E-001	-1.15500E-006	1.12492E-006	-2.27992E-006	-1.79000E-001	4.15206E-004	6	..........a	-327.68
	99	2	-1.28553E-001	-1.75247E-001	-1.51900E-001	-1.15442E-006	1.12464E-006	-2.27906E-006	-1.77000E-001	3.71873E-004	6	..........a	-327.68
	100	2.02	-1.26551E-001	-1.73253E-001	-1.49902E-001	-1.15384E-006	1.12534E-006	-2.27919E-006	-1.75000E-001	3.76039E-004	6	..........a	-327.68
