EXPLAIN
TAG	SQUARE_WAVE
TITLE	LABEL	Square Wave Voltammetry	Test Identifier
DATE	LABEL	8/31/2020	Date
TIME	LABEL	12:51:23	Time
NOTES	NOTES	1	Notes...
	
PSTAT	PSTAT	REF600-24079	Potentiostat
VINIT	QUANT	-3.50000E-001	Initial E (V)
VFINAL	QUANT	-1.50000E-001	Final E (V)
STEPSIZE	QUANT	2.00000E+000	Step Size (mV)
TIMERRES	QUANT	3.33340E-005	&Timer Resolution
FREQUENCY	QUANT	2.50000E+002	Frequency (Hz)
PULSESIZE	QUANT	2.50000E+001	Pulse Size E (mV)
PULSEON	QUANT	4.00000E-003	Pulse &Time (s)
NOISEREJECT	TOGGLE	F	Noise Rejection
AREA	QUANT	2.00000E-002	Sample Area (cm^2)
IMODE	SELECTOR	1	I/E Range Mode
IRANGE	QUANT	1.00000E-002	Max Current (mA)
EQDELAY	IQUANT	10	Equil. Time (s)
IRCOMP	SELECTOR	0	IRComp
PFCOR	QUANT	5.00000E+001	PF Corr. (ohm)
CYCLES	IQUANT	101	C&ycles (#)
ELECTRODETYPE	SELECTOR	0	Electrode Type
STRIPPING	TOGGLE	F	Used for Stripping
POLARITY	TOGGLE	F	Signal Polarity
LINEFREQ	IQUANT	60	Line Frequency (Hz)
INTPERIOD	QUANT	3.3334E-005	Integration Period (s)
SEQUENCER	TOGGLE	TRUE	Run as Sequence
PSTATMODEL	IQUANT	4	Pstat Model
PSTATSECTION	LABEL	REF600-24079	Pstat Section
PSTATSERIALNO	LABEL	24079	Pstat Serial Number
CTRLMODE	IQUANT	1	Control Mode
ELECTROMETER	IQUANT	0	RE=0 or CS=1
IESTAB	IQUANT	2	I/E Stability
CASPEED	IQUANT	6	Control Amp Speed
CONVENTION	IQUANT	1	Current Convention
ICHRANGE	IQUANT	2	Ich Range
ICHRANGEMODE	TOGGLE	F	Ich Auto Range
ICHOFFSETENABLE	TOGGLE	F	Ich Offset Enable
ICHOFFSET	QUANT	0	Ich Offset (V)
ICHFILTER	IQUANT	2	Ich Filter
VCHRANGE	IQUANT	2	Vch Range
VCHRANGEMODE	TOGGLE	F	Vch Auto Range
VCHOFFSETENABLE	TOGGLE	F	Vch Offset Enable
VCHOFFSET	QUANT	0	Vch Offset (V)
VCHFILTER	IQUANT	1	Vch Filter
ACHRANGE	IQUANT	2	Ach Range
ACHOFFSETENABLE	TOGGLE	F	Ach Offset Enable
ACHOFFSET	QUANT	0	Ach Offset (V)
ACHFILTER	IQUANT	1	Ach Filter
IERANGELOWERLIMIT	IQUANT	1	I/E Range Lower Limit
IERANGEMODE	TOGGLE	F	I/E AutoRange
IERANGE	IQUANT	7	I/E Range
POSFEEDENABLE	TOGGLE	F	Positive Feedback IR Comp
POSFEEDRESISTANCE	QUANT	0	Positive Feedback Resistance (ohm)
ACHSELECT	IQUANT	0	Ach Select
SENSECABLEID	IQUANT	13	Sense Cable ID
PWRCABLEID	IQUANT	13	Power Cable ID
DCCALDATE	LABEL	6/30/2020	DC Calibration Date
ACCALDATE	LABEL	6/30/2020	AC Calibration Date
THERMOSELECT	IQUANT	1	Thermo Select
FRAMEWORKVERSION	LABEL	7.8.2	Framework Version
INSTRUMENTVERSION	LABEL	4.40	Instrument Version
CURVE	TABLE	101
	Pt	T	Vfwd	Vrev	Vstep	Ifwd	Irev	Idif	Sig	Ach	IERange	Over	Temp
	#	s	V	V	V	A	A	A	V	V	#	bits	deg C
	0	0.004	-3.25291E-001	-3.82274E-001	-3.53783E-001	3.79839E-008	-4.36303E-006	4.40102E-006	-3.75000E-001	3.11873E-004	7	..........a	-327.68
	1	0.008	-3.15257E-001	-3.81328E-001	-3.48293E-001	4.75488E-006	-4.86093E-006	9.61581E-006	-3.73000E-001	2.99373E-004	7	..........a	-327.68
	2	0.012	-3.13112E-001	-3.79366E-001	-3.46239E-001	4.87473E-006	-4.84777E-006	9.72249E-006	-3.71000E-001	3.16039E-004	7	..........a	-327.68
	3	0.016	-3.11141E-001	-3.77341E-001	-3.44241E-001	4.89123E-006	-4.83643E-006	9.72766E-006	-3.69000E-001	3.24373E-004	7	..........a	-327.68
	4	0.02	-3.09112E-001	-3.75395E-001	-3.42253E-001	4.91323E-006	-4.83093E-006	9.74416E-006	-3.67000E-001	3.03539E-004	7	..........a	-327.68
	5	0.024	-3.07095E-001	-3.73387E-001	-3.40241E-001	4.92515E-006	-4.82951E-006	9.75466E-006	-3.65000E-001	3.32706E-004	7	..........a	-327.68
	6	0.028	-3.05141E-001	-3.71341E-001	-3.38241E-001	4.94082E-006	-4.82968E-006	9.77050E-006	-3.63000E-001	3.03539E-004	7	..........a	-327.68
	7	0.032	-3.03191E-001	-3.69283E-001	-3.36237E-001	4.95315E-006	-4.83126E-006	9.78442E-006	-3.61000E-001	3.16039E-004	7	..........a	-327.68
	8	0.036	-3.01220E-001	-3.67382E-001	-3.34301E-001	4.96566E-006	-4.84201E-006	9.80767E-006	-3.59000E-001	3.11873E-004	7	..........a	-327.68
	9	0.04	-2.99191E-001	-3.65362E-001	-3.32276E-001	4.98607E-006	-4.84902E-006	9.83509E-006	-3.57000E-001	3.45206E-004	7	..........a	-327.68
	10	0.044	-2.97203E-001	-3.63270E-001	-3.30237E-001	5.00158E-006	-4.85102E-006	9.85259E-006	-3.55000E-001	3.11873E-004	7	..........a	-327.68
	11	0.048	-2.95249E-001	-3.61253E-001	-3.28251E-001	5.01316E-006	-4.85810E-006	9.87126E-006	-3.53000E-001	3.53539E-004	7	..........a	-327.68
	12	0.052	-2.93220E-001	-3.59349E-001	-3.26285E-001	5.02808E-006	-4.86902E-006	9.89710E-006	-3.51000E-001	2.95206E-004	7	..........a	-327.68
	13	0.056	-2.91224E-001	-3.57341E-001	-3.24283E-001	5.05900E-006	-4.88502E-006	9.94402E-006	-3.49000E-001	2.99373E-004	7	..........a	-327.68
	14	0.06	-2.89283E-001	-3.55291E-001	-3.22287E-001	5.07159E-006	-4.89669E-006	9.96827E-006	-3.47000E-001	3.16039E-004	7	..........a	-327.68
	15	0.064	-2.87303E-001	-3.53299E-001	-3.20301E-001	5.09859E-006	-4.90852E-006	1.00071E-005	-3.45000E-001	3.11873E-004	7	..........a	-327.68
	16	0.068	-2.85316E-001	-3.51308E-001	-3.18312E-001	5.12009E-006	-4.92544E-006	1.00455E-005	-3.43000E-001	3.28539E-004	7	..........a	-327.68
	17	0.072	-2.83287E-001	-3.49287E-001	-3.16287E-001	5.14710E-006	-4.93994E-006	1.00870E-005	-3.41000E-001	3.28539E-004	7	..........a	-327.68
	18	0.076	-2.81341E-001	-3.47299E-001	-3.14320E-001	5.17535E-006	-4.96520E-006	1.01405E-005	-3.39000E-001	2.91039E-004	7	..........a	-327.68
	19	0.08	-2.79391E-001	-3.45216E-001	-3.12303E-001	5.20002E-006	-4.97695E-006	1.01770E-005	-3.37000E-001	3.32706E-004	7	..........a	-327.68
	20	0.084	-2.77395E-001	-3.43287E-001	-3.10341E-001	5.23061E-006	-5.00087E-006	1.02315E-005	-3.35000E-001	2.74373E-004	7	..........a	-327.68
	21	0.088	-2.75416E-001	-3.41287E-001	-3.08351E-001	5.26303E-006	-5.02587E-006	1.02889E-005	-3.33000E-001	2.86873E-004	7	..........a	-327.68
	22	0.092	-2.73432E-001	-3.39124E-001	-3.06278E-001	5.30378E-006	-5.05204E-006	1.03558E-005	-3.31000E-001	3.86873E-004	7	..........a	-327.68
	23	0.096	-2.71474E-001	-3.37212E-001	-3.04343E-001	5.33271E-006	-5.07405E-006	1.04068E-005	-3.29000E-001	2.86873E-004	7	..........a	-327.68
	24	0.1	-2.69466E-001	-3.35216E-001	-3.02341E-001	5.37121E-006	-5.09522E-006	1.04664E-005	-3.27000E-001	3.28539E-004	7	..........a	-327.68
	25	0.104	-2.67445E-001	-3.33199E-001	-3.00322E-001	5.41113E-006	-5.12722E-006	1.05384E-005	-3.25000E-001	2.99373E-004	7	..........a	-327.68
	26	0.108	-2.65532E-001	-3.31174E-001	-2.98353E-001	5.45155E-006	-5.15664E-006	1.06082E-005	-3.23000E-001	3.07706E-004	7	..........a	-327.68
	27	0.112	-2.63557E-001	-3.29187E-001	-2.96372E-001	5.49414E-006	-5.18673E-006	1.06809E-005	-3.21000E-001	2.91039E-004	7	..........a	-327.68
	28	0.116	-2.61633E-001	-3.27166E-001	-2.94399E-001	5.52773E-006	-5.21298E-006	1.07407E-005	-3.19000E-001	3.16039E-004	7	..........a	-327.68
	29	0.12	-2.59620E-001	-3.25149E-001	-2.92385E-001	5.56832E-006	-5.24090E-006	1.08092E-005	-3.17000E-001	3.45206E-004	7	..........a	-327.68
	30	0.124	-2.57612E-001	-3.23103E-001	-2.90358E-001	5.61233E-006	-5.27024E-006	1.08826E-005	-3.15000E-001	3.49373E-004	7	..........a	-327.68
	31	0.128	-2.55712E-001	-3.21170E-001	-2.88441E-001	5.66342E-006	-5.30291E-006	1.09663E-005	-3.13000E-001	3.49373E-004	7	..........a	-327.68
	32	0.132	-2.53687E-001	-3.19124E-001	-2.86405E-001	5.69942E-006	-5.32991E-006	1.10293E-005	-3.11000E-001	3.24373E-004	7	..........a	-327.68
	33	0.136	-2.51783E-001	-3.17128E-001	-2.84455E-001	5.74126E-006	-5.35450E-006	1.10958E-005	-3.09000E-001	2.99373E-004	7	..........a	-327.68
	34	0.14	-2.49724E-001	-3.15049E-001	-2.82387E-001	5.78660E-006	-5.38551E-006	1.11721E-005	-3.07000E-001	3.36873E-004	7	..........a	-327.68
	35	0.144	-2.47762E-001	-3.13087E-001	-2.80424E-001	5.83094E-006	-5.41334E-006	1.12443E-005	-3.05000E-001	2.99373E-004	7	..........a	-327.68
	36	0.148	-2.45774E-001	-3.11037E-001	-2.78405E-001	5.86628E-006	-5.43610E-006	1.13024E-005	-3.03000E-001	3.57706E-004	7	..........a	-327.68
	37	0.152	-2.43824E-001	-3.09066E-001	-2.76445E-001	5.89912E-006	-5.45927E-006	1.13584E-005	-3.01000E-001	2.53539E-004	7	..........a	-327.68
	38	0.156	-2.41753E-001	-3.06991E-001	-2.74372E-001	5.93604E-006	-5.47977E-006	1.14158E-005	-2.99000E-001	2.82706E-004	7	..........a	-327.68
	39	0.16	-2.39808E-001	-3.05108E-001	-2.72458E-001	5.96654E-006	-5.49660E-006	1.14631E-005	-2.97000E-001	3.16039E-004	7	..........a	-327.68
	40	0.164	-2.37833E-001	-3.03016E-001	-2.70424E-001	6.00071E-006	-5.50877E-006	1.15095E-005	-2.95000E-001	2.99373E-004	7	..........a	-327.68
	41	0.168	-2.35883E-001	-3.00991E-001	-2.68437E-001	6.01530E-006	-5.51877E-006	1.15341E-005	-2.93000E-001	3.61873E-004	7	..........a	-327.68
	42	0.172	-2.33799E-001	-2.98932E-001	-2.66366E-001	6.03822E-006	-5.53203E-006	1.15702E-005	-2.91000E-001	2.82706E-004	7	..........a	-327.68
	43	0.176	-2.31878E-001	-2.96987E-001	-2.64433E-001	6.05697E-006	-5.53469E-006	1.15917E-005	-2.89000E-001	3.28539E-004	7	..........a	-327.68
	44	0.18	-2.29903E-001	-2.94987E-001	-2.62445E-001	6.06764E-006	-5.53403E-006	1.16017E-005	-2.87000E-001	3.03539E-004	7	..........a	-327.68
	45	0.184	-2.27883E-001	-2.92924E-001	-2.60403E-001	6.07447E-006	-5.53486E-006	1.16093E-005	-2.85000E-001	2.53539E-004	7	..........a	-327.68
	46	0.188	-2.25858E-001	-2.90878E-001	-2.58368E-001	6.07222E-006	-5.52602E-006	1.15982E-005	-2.83000E-001	3.45206E-004	7	..........a	-327.68
	47	0.192	-2.23828E-001	-2.88907E-001	-2.56368E-001	6.07889E-006	-5.52086E-006	1.15997E-005	-2.81000E-001	3.11873E-004	7	..........a	-327.68
	48	0.196	-2.21866E-001	-2.86953E-001	-2.54410E-001	6.06256E-006	-5.50452E-006	1.15671E-005	-2.79000E-001	3.82706E-004	7	..........a	-327.68
	49	0.2	-2.19824E-001	-2.84824E-001	-2.52324E-001	6.05097E-006	-5.48844E-006	1.15394E-005	-2.77000E-001	3.11873E-004	7	..........a	-327.68
	50	0.204	-2.17778E-001	-2.82874E-001	-2.50326E-001	6.03247E-006	-5.46910E-006	1.15016E-005	-2.75000E-001	3.24373E-004	7	..........a	-327.68
	51	0.208	-2.15820E-001	-2.80912E-001	-2.48366E-001	6.00688E-006	-5.44576E-006	1.14526E-005	-2.73000E-001	3.28539E-004	7	..........a	-327.68
	52	0.212	-2.13762E-001	-2.78891E-001	-2.46326E-001	5.97854E-006	-5.42159E-006	1.14001E-005	-2.71000E-001	3.82706E-004	7	..........a	-327.68
	53	0.216	-2.11758E-001	-2.76882E-001	-2.44320E-001	5.94554E-006	-5.39259E-006	1.13381E-005	-2.69000E-001	2.99373E-004	7	..........a	-327.68
	54	0.22	-2.09653E-001	-2.74907E-001	-2.42280E-001	5.91253E-006	-5.36134E-006	1.12739E-005	-2.67000E-001	3.20206E-004	7	..........a	-327.68
	55	0.224	-2.07641E-001	-2.72912E-001	-2.40276E-001	5.87295E-006	-5.33233E-006	1.12053E-005	-2.65000E-001	3.41039E-004	7	..........a	-327.68
	56	0.228	-2.05653E-001	-2.70949E-001	-2.38301E-001	5.83452E-006	-5.29833E-006	1.11329E-005	-2.63000E-001	2.95206E-004	7	..........a	-327.68
	57	0.232	-2.03616E-001	-2.68899E-001	-2.36258E-001	5.78285E-006	-5.26024E-006	1.10431E-005	-2.61000E-001	3.03539E-004	7	..........a	-327.68
	58	0.236	-2.01620E-001	-2.66849E-001	-2.34235E-001	5.74368E-006	-5.22348E-006	1.09672E-005	-2.59000E-001	3.20206E-004	7	..........a	-327.68
	59	0.24	-1.99595E-001	-2.64962E-001	-2.32278E-001	5.69442E-006	-5.18448E-006	1.08789E-005	-2.57000E-001	3.61873E-004	7	..........a	-327.68
	60	0.244	-1.97524E-001	-2.62949E-001	-2.30237E-001	5.64583E-006	-5.14597E-006	1.07918E-005	-2.55000E-001	3.49373E-004	7	..........a	-327.68
	61	0.248	-1.95524E-001	-2.60941E-001	-2.28233E-001	5.59457E-006	-5.11247E-006	1.07070E-005	-2.53000E-001	2.78539E-004	7	..........a	-327.68
	62	0.252	-1.93520E-001	-2.58903E-001	-2.26212E-001	5.54198E-006	-5.07005E-006	1.06120E-005	-2.51000E-001	3.16039E-004	7	..........a	-327.68
	63	0.256	-1.91499E-001	-2.56962E-001	-2.24230E-001	5.49281E-006	-5.03071E-006	1.05235E-005	-2.49000E-001	2.95206E-004	7	..........a	-327.68
	64	0.26	-1.89470E-001	-2.55033E-001	-2.22251E-001	5.43822E-006	-4.99554E-006	1.04338E-005	-2.47000E-001	2.86873E-004	7	..........a	-327.68
	65	0.264	-1.87416E-001	-2.52995E-001	-2.20205E-001	5.39771E-006	-4.96045E-006	1.03582E-005	-2.45000E-001	3.28539E-004	7	..........a	-327.68
	66	0.268	-1.85395E-001	-2.50933E-001	-2.18164E-001	5.34587E-006	-4.92436E-006	1.02702E-005	-2.43000E-001	2.78539E-004	7	..........a	-327.68
	67	0.272	-1.83433E-001	-2.49003E-001	-2.16218E-001	5.30295E-006	-4.88377E-006	1.01867E-005	-2.41000E-001	3.20206E-004	7	..........a	-327.68
	68	0.276	-1.81412E-001	-2.46995E-001	-2.14203E-001	5.25836E-006	-4.85268E-006	1.01110E-005	-2.39000E-001	3.07706E-004	7	..........a	-327.68
	69	0.28	-1.79337E-001	-2.45016E-001	-2.12176E-001	5.21302E-006	-4.81759E-006	1.00306E-005	-2.37000E-001	3.11873E-004	7	..........a	-327.68
	70	0.284	-1.77349E-001	-2.42983E-001	-2.10166E-001	5.17460E-006	-4.79167E-006	9.96627E-006	-2.35000E-001	2.95206E-004	7	..........a	-327.68
	71	0.288	-1.75337E-001	-2.41070E-001	-2.08203E-001	5.13109E-006	-4.75800E-006	9.88910E-006	-2.33000E-001	3.41039E-004	7	..........a	-327.68
	72	0.292	-1.73333E-001	-2.39003E-001	-2.06168E-001	5.09242E-006	-4.72475E-006	9.81717E-006	-2.31000E-001	3.70206E-004	7	..........a	-327.68
	73	0.296	-1.71291E-001	-2.37033E-001	-2.04162E-001	5.05517E-006	-4.69824E-006	9.75341E-006	-2.29000E-001	3.07706E-004	7	..........a	-327.68
	74	0.3	-1.69324E-001	-2.34987E-001	-2.02155E-001	5.02641E-006	-4.67149E-006	9.69791E-006	-2.27000E-001	3.07706E-004	7	..........a	-327.68
	75	0.304	-1.67328E-001	-2.33041E-001	-2.00185E-001	4.98641E-006	-4.64515E-006	9.63156E-006	-2.25000E-001	2.86873E-004	7	..........a	-327.68
	76	0.308	-1.65208E-001	-2.31041E-001	-1.98124E-001	4.96182E-006	-4.62498E-006	9.58681E-006	-2.23000E-001	3.16039E-004	7	..........a	-327.68
	77	0.312	-1.63245E-001	-2.29045E-001	-1.96145E-001	4.92957E-006	-4.60132E-006	9.53088E-006	-2.21000E-001	3.24373E-004	7	..........a	-327.68
	78	0.316	-1.61291E-001	-2.26987E-001	-1.94139E-001	4.90415E-006	-4.58106E-006	9.48521E-006	-2.19000E-001	2.99373E-004	7	..........a	-327.68
	79	0.32	-1.59299E-001	-2.25112E-001	-1.92205E-001	4.88139E-006	-4.56064E-006	9.44204E-006	-2.17000E-001	3.32706E-004	7	..........a	-327.68
	80	0.324	-1.57203E-001	-2.23053E-001	-1.90128E-001	4.85497E-006	-4.54122E-006	9.39620E-006	-2.15000E-001	3.11873E-004	7	..........a	-327.68
	81	0.328	-1.55212E-001	-2.21083E-001	-1.88147E-001	4.83289E-006	-4.52189E-006	9.35478E-006	-2.13000E-001	3.57706E-004	7	..........a	-327.68
	82	0.332	-1.53274E-001	-2.19078E-001	-1.86176E-001	4.80847E-006	-4.51055E-006	9.31902E-006	-2.11000E-001	2.95206E-004	7	..........a	-327.68
	83	0.336	-1.51241E-001	-2.17103E-001	-1.84172E-001	4.79747E-006	-4.48947E-006	9.28693E-006	-2.09000E-001	3.32706E-004	7	..........a	-327.68
	84	0.34	-1.49262E-001	-2.15083E-001	-1.82172E-001	4.77388E-006	-4.47321E-006	9.24709E-006	-2.07000E-001	3.53539E-004	7	..........a	-327.68
	85	0.344	-1.47224E-001	-2.13141E-001	-1.80183E-001	4.75863E-006	-4.46013E-006	9.21876E-006	-2.05000E-001	3.24373E-004	7	..........a	-327.68
	86	0.348	-1.45283E-001	-2.11099E-001	-1.78191E-001	4.74471E-006	-4.45346E-006	9.19817E-006	-2.03000E-001	3.28539E-004	7	..........a	-327.68
	87	0.352	-1.43253E-001	-2.09153E-001	-1.76203E-001	4.73221E-006	-4.44188E-006	9.17408E-006	-2.01000E-001	3.24373E-004	7	..........a	-327.68
	88	0.356	-1.41241E-001	-2.07099E-001	-1.74170E-001	4.72020E-006	-4.42971E-006	9.14991E-006	-1.99000E-001	3.28539E-004	7	..........a	-327.68
	89	0.36	-1.39162E-001	-2.05141E-001	-1.72151E-001	4.70395E-006	-4.41787E-006	9.12183E-006	-1.97000E-001	3.07706E-004	7	..........a	-327.68
	90	0.364	-1.37253E-001	-2.03058E-001	-1.70155E-001	4.70029E-006	-4.41237E-006	9.11266E-006	-1.95000E-001	2.99373E-004	7	..........a	-327.68
	91	0.368	-1.35245E-001	-2.01183E-001	-1.68214E-001	4.68520E-006	-4.40520E-006	9.09041E-006	-1.93000E-001	3.11873E-004	7	..........a	-327.68
	92	0.372	-1.33228E-001	-1.99141E-001	-1.66185E-001	4.67937E-006	-4.39495E-006	9.07432E-006	-1.91000E-001	3.16039E-004	7	..........a	-327.68
	93	0.376	-1.31212E-001	-1.97166E-001	-1.64189E-001	4.67203E-006	-4.38420E-006	9.05623E-006	-1.89000E-001	3.32706E-004	7	..........a	-327.68
	94	0.38	-1.29216E-001	-1.95162E-001	-1.62189E-001	4.65978E-006	-4.38045E-006	9.04023E-006	-1.87000E-001	3.24373E-004	7	..........a	-327.68
	95	0.384	-1.27270E-001	-1.93199E-001	-1.60235E-001	4.65836E-006	-4.38054E-006	9.03890E-006	-1.85000E-001	3.28539E-004	7	..........a	-327.68
	96	0.388	-1.25274E-001	-1.91170E-001	-1.58222E-001	4.65220E-006	-4.36870E-006	9.02090E-006	-1.83000E-001	2.95206E-004	7	..........a	-327.68
	97	0.392	-1.23162E-001	-1.89108E-001	-1.56135E-001	4.64569E-006	-4.36712E-006	9.01281E-006	-1.81000E-001	3.07706E-004	7	..........a	-327.68
	98	0.396	-1.21216E-001	-1.87108E-001	-1.54162E-001	4.63728E-006	-4.36103E-006	8.99831E-006	-1.79000E-001	3.24373E-004	7	..........a	-327.68
	99	0.4	-1.19241E-001	-1.85170E-001	-1.52205E-001	4.64228E-006	-4.36312E-006	9.00539E-006	-1.77000E-001	3.16039E-004	7	..........a	-327.68
	100	0.404	-1.17245E-001	-1.83174E-001	-1.50210E-001	4.63436E-006	-4.35762E-006	8.99198E-006	-1.75000E-001	3.49373E-004	7	..........a	-327.68
