EXPLAIN
TAG	SQUARE_WAVE
TITLE	LABEL	Square Wave Voltammetry	Test Identifier
DATE	LABEL	8/25/2020	Date
TIME	LABEL	14:39:08	Time
NOTES	NOTES	1	Notes...
	
PSTAT	PSTAT	REF600-24079	Potentiostat
VINIT	QUANT	-3.50000E-001	Initial E (V)
VFINAL	QUANT	-1.50000E-001	Final E (V)
STEPSIZE	QUANT	2.00000E+000	Step Size (mV)
TIMERRES	QUANT	3.33340E-005	&Timer Resolution
FREQUENCY	QUANT	1.00000E+001	Frequency (Hz)
PULSESIZE	QUANT	2.50000E+001	Pulse Size E (mV)
PULSEON	QUANT	1.00000E-001	Pulse &Time (s)
NOISEREJECT	TOGGLE	F	Noise Rejection
AREA	QUANT	2.00000E-002	Sample Area (cm^2)
IMODE	SELECTOR	1	I/E Range Mode
IRANGE	QUANT	1.00000E-003	Max Current (mA)
EQDELAY	IQUANT	10	Equil. Time (s)
IRCOMP	SELECTOR	0	IRComp
PFCOR	QUANT	5.00000E+001	PF Corr. (ohm)
CYCLES	IQUANT	101	C&ycles (#)
ELECTRODETYPE	SELECTOR	0	Electrode Type
STRIPPING	TOGGLE	F	Used for Stripping
POLARITY	TOGGLE	F	Signal Polarity
LINEFREQ	IQUANT	60	Line Frequency (Hz)
INTPERIOD	QUANT	3.3334E-005	Integration Period (s)
SEQUENCER	TOGGLE	TRUE	Run as Sequence
PSTATMODEL	IQUANT	4	Pstat Model
PSTATSECTION	LABEL	REF600-24079	Pstat Section
PSTATSERIALNO	LABEL	24079	Pstat Serial Number
CTRLMODE	IQUANT	1	Control Mode
ELECTROMETER	IQUANT	0	RE=0 or CS=1
IESTAB	IQUANT	2	I/E Stability
CASPEED	IQUANT	6	Control Amp Speed
CONVENTION	IQUANT	1	Current Convention
ICHRANGE	IQUANT	2	Ich Range
ICHRANGEMODE	TOGGLE	F	Ich Auto Range
ICHOFFSETENABLE	TOGGLE	F	Ich Offset Enable
ICHOFFSET	QUANT	0	Ich Offset (V)
ICHFILTER	IQUANT	2	Ich Filter
VCHRANGE	IQUANT	2	Vch Range
VCHRANGEMODE	TOGGLE	F	Vch Auto Range
VCHOFFSETENABLE	TOGGLE	F	Vch Offset Enable
VCHOFFSET	QUANT	0	Vch Offset (V)
VCHFILTER	IQUANT	2	Vch Filter
ACHRANGE	IQUANT	2	Ach Range
ACHOFFSETENABLE	TOGGLE	F	Ach Offset Enable
ACHOFFSET	QUANT	0	Ach Offset (V)
ACHFILTER	IQUANT	1	Ach Filter
IERANGELOWERLIMIT	IQUANT	1	I/E Range Lower Limit
IERANGEMODE	TOGGLE	F	I/E AutoRange
IERANGE	IQUANT	6	I/E Range
POSFEEDENABLE	TOGGLE	F	Positive Feedback IR Comp
POSFEEDRESISTANCE	QUANT	0	Positive Feedback Resistance (ohm)
ACHSELECT	IQUANT	0	Ach Select
SENSECABLEID	IQUANT	13	Sense Cable ID
PWRCABLEID	IQUANT	13	Power Cable ID
DCCALDATE	LABEL	6/30/2020	DC Calibration Date
ACCALDATE	LABEL	6/30/2020	AC Calibration Date
THERMOSELECT	IQUANT	1	Thermo Select
FRAMEWORKVERSION	LABEL	7.8.2	Framework Version
INSTRUMENTVERSION	LABEL	4.40	Instrument Version
CURVE	TABLE	101
	Pt	T	Vfwd	Vrev	Vstep	Ifwd	Irev	Idif	Sig	Ach	IERange	Over	Temp
	#	s	V	V	V	A	A	A	V	V	#	bits	deg C
	0	0.1	-3.25076E-001	-3.75040E-001	-3.50058E-001	-9.41061E-009	-3.89180E-008	2.95074E-008	-3.75000E-001	4.44373E-004	6	..........a	-327.68
	1	0.2	-3.23007E-001	-3.73077E-001	-3.48042E-001	1.71447E-009	-3.41584E-008	3.58729E-008	-3.73000E-001	4.40873E-004	6	..........a	-327.68
	2	0.3	-3.21100E-001	-3.70990E-001	-3.46045E-001	3.85974E-009	-3.22589E-008	3.61186E-008	-3.71000E-001	4.51039E-004	6	..........a	-327.68
	3	0.4	-3.19090E-001	-3.69120E-001	-3.44105E-001	5.23058E-009	-3.12251E-008	3.64556E-008	-3.69000E-001	4.45206E-004	6	..........a	-327.68
	4	0.5	-3.17113E-001	-3.67037E-001	-3.42075E-001	6.18237E-009	-3.02733E-008	3.64556E-008	-3.67000E-001	4.42373E-004	6	..........a	-327.68
	5	0.6	-3.15005E-001	-3.65089E-001	-3.40047E-001	6.68143E-009	-2.98125E-008	3.64940E-008	-3.65000E-001	4.48539E-004	6	..........a	-327.68
	6	0.7	-3.13116E-001	-3.62966E-001	-3.38041E-001	7.49320E-009	-2.89558E-008	3.64490E-008	-3.63000E-001	4.45206E-004	6	..........a	-327.68
	7	0.8	-3.11060E-001	-3.61098E-001	-3.36079E-001	7.79791E-009	-2.86557E-008	3.64536E-008	-3.61000E-001	4.36539E-004	6	..........a	-327.68
	8	0.9	-3.09109E-001	-3.59022E-001	-3.34065E-001	8.66969E-009	-2.82237E-008	3.68934E-008	-3.59000E-001	4.44039E-004	6	..........a	-327.68
	9	1	-3.06966E-001	-3.57107E-001	-3.32036E-001	9.11808E-009	-2.78253E-008	3.69434E-008	-3.57000E-001	4.44039E-004	6	..........a	-327.68
	10	1.1	-3.05109E-001	-3.54975E-001	-3.30042E-001	9.80816E-009	-2.73089E-008	3.71171E-008	-3.55000E-001	4.47539E-004	6	..........a	-327.68
	11	1.2	-3.03071E-001	-3.53094E-001	-3.28082E-001	1.00035E-008	-2.70732E-008	3.70767E-008	-3.53000E-001	4.46706E-004	6	..........a	-327.68
	12	1.3	-3.01114E-001	-3.51010E-001	-3.26062E-001	1.08616E-008	-2.67788E-008	3.76405E-008	-3.51000E-001	4.40706E-004	6	..........a	-327.68
	13	1.4	-2.98988E-001	-3.49072E-001	-3.24030E-001	1.11603E-008	-2.65061E-008	3.76665E-008	-3.49000E-001	4.45873E-004	6	..........a	-327.68
	14	1.5	-2.97107E-001	-3.47003E-001	-3.22055E-001	1.19838E-008	-2.63584E-008	3.83422E-008	-3.47000E-001	4.47206E-004	6	..........a	-327.68
	15	1.6	-2.95047E-001	-3.45118E-001	-3.20083E-001	1.24885E-008	-2.62141E-008	3.87026E-008	-3.45000E-001	4.51039E-004	6	..........a	-327.68
	16	1.7	-2.93060E-001	-3.43053E-001	-3.18056E-001	1.32733E-008	-2.61001E-008	3.93733E-008	-3.43000E-001	4.49706E-004	6	..........a	-327.68
	17	1.8	-2.90949E-001	-3.41077E-001	-3.16013E-001	1.39787E-008	-2.62801E-008	4.02588E-008	-3.41000E-001	4.51039E-004	6	..........a	-327.68
	18	1.9	-2.89126E-001	-3.38978E-001	-3.14052E-001	1.47758E-008	-2.61221E-008	4.08979E-008	-3.39000E-001	4.46539E-004	6	..........a	-327.68
	19	2	-2.87055E-001	-3.37103E-001	-3.12079E-001	1.54109E-008	-2.61494E-008	4.15603E-008	-3.37000E-001	4.46373E-004	6	..........a	-327.68
	20	2.1	-2.85102E-001	-3.35034E-001	-3.10068E-001	1.63833E-008	-2.61971E-008	4.25804E-008	-3.35000E-001	4.42206E-004	6	..........a	-327.68
	21	2.2	-2.82971E-001	-3.33096E-001	-3.08033E-001	1.70844E-008	-2.63181E-008	4.34025E-008	-3.33000E-001	4.43873E-004	6	..........a	-327.68
	22	2.3	-2.81120E-001	-3.30964E-001	-3.06042E-001	1.79569E-008	-2.67088E-008	4.46657E-008	-3.31000E-001	4.46206E-004	6	..........a	-327.68
	23	2.4	-2.79052E-001	-3.29111E-001	-3.04082E-001	1.89837E-008	-2.67078E-008	4.56915E-008	-3.29000E-001	4.44873E-004	6	..........a	-327.68
	24	2.5	-2.77117E-001	-3.27023E-001	-3.02070E-001	2.00735E-008	-2.69682E-008	4.70416E-008	-3.27000E-001	4.40706E-004	6	..........a	-327.68
	25	2.6	-2.75003E-001	-3.25076E-001	-3.00039E-001	2.09766E-008	-2.74672E-008	4.84438E-008	-3.25000E-001	4.43873E-004	6	..........a	-327.68
	26	2.7	-2.73101E-001	-3.22994E-001	-2.98047E-001	2.20741E-008	-2.77643E-008	4.98383E-008	-3.23000E-001	4.44706E-004	6	..........a	-327.68
	27	2.8	-2.71040E-001	-3.21046E-001	-2.96043E-001	2.30575E-008	-2.83094E-008	5.13669E-008	-3.21000E-001	4.47039E-004	6	..........a	-327.68
	28	2.9	-2.69085E-001	-3.19045E-001	-2.94065E-001	2.43313E-008	-2.89871E-008	5.33185E-008	-3.19000E-001	4.42206E-004	6	..........a	-327.68
	29	3	-2.66939E-001	-3.17109E-001	-2.92024E-001	2.54485E-008	-2.94902E-008	5.49387E-008	-3.17000E-001	4.43039E-004	6	..........a	-327.68
	30	3.1	-2.65124E-001	-3.14981E-001	-2.90052E-001	2.65026E-008	-3.01006E-008	5.66032E-008	-3.15000E-001	4.39373E-004	6	..........a	-327.68
	31	3.2	-2.63011E-001	-3.13097E-001	-2.88054E-001	2.76908E-008	-3.05976E-008	5.82884E-008	-3.13000E-001	4.43039E-004	6	..........a	-327.68
	32	3.3	-2.61108E-001	-3.10997E-001	-2.86052E-001	2.86062E-008	-3.15641E-008	6.01703E-008	-3.11000E-001	4.42373E-004	6	..........a	-327.68
	33	3.4	-2.58984E-001	-3.09074E-001	-2.84029E-001	2.96344E-008	-3.21692E-008	6.18035E-008	-3.09000E-001	4.42039E-004	6	..........a	-327.68
	34	3.5	-2.57100E-001	-3.06977E-001	-2.82038E-001	3.06525E-008	-3.31646E-008	6.38171E-008	-3.07000E-001	4.43706E-004	6	..........a	-327.68
	35	3.6	-2.55053E-001	-3.05111E-001	-2.80082E-001	3.13592E-008	-3.39171E-008	6.52763E-008	-3.05000E-001	4.43039E-004	6	..........a	-327.68
	36	3.7	-2.53121E-001	-3.03047E-001	-2.78084E-001	3.21607E-008	-3.48422E-008	6.70029E-008	-3.03000E-001	4.40706E-004	6	..........a	-327.68
	37	3.8	-2.50990E-001	-3.01107E-001	-2.76048E-001	3.26954E-008	-3.56053E-008	6.83007E-008	-3.01000E-001	4.45706E-004	6	..........a	-327.68
	38	3.9	-2.49094E-001	-2.98992E-001	-2.74043E-001	3.33582E-008	-3.63307E-008	6.96889E-008	-2.99000E-001	4.55039E-004	6	..........a	-327.68
	39	4	-2.47011E-001	-2.97087E-001	-2.72049E-001	3.41803E-008	-3.72728E-008	7.14531E-008	-2.97000E-001	4.47706E-004	6	..........a	-327.68
	40	4.1	-2.45065E-001	-2.95028E-001	-2.70046E-001	3.43009E-008	-3.78029E-008	7.21038E-008	-2.95000E-001	4.40873E-004	6	..........a	-327.68
	41	4.2	-2.43013E-001	-2.93074E-001	-2.68043E-001	3.43236E-008	-3.84646E-008	7.27883E-008	-2.93000E-001	4.36373E-004	6	..........a	-327.68
	42	4.3	-2.41125E-001	-2.90943E-001	-2.66034E-001	3.43700E-008	-3.90444E-008	7.34143E-008	-2.91000E-001	4.37873E-004	6	..........a	-327.68
	43	4.4	-2.39049E-001	-2.89115E-001	-2.64082E-001	3.43683E-008	-3.96658E-008	7.40341E-008	-2.89000E-001	4.47873E-004	6	..........a	-327.68
	44	4.5	-2.37089E-001	-2.87013E-001	-2.62051E-001	3.42586E-008	-3.98968E-008	7.41554E-008	-2.87000E-001	4.42873E-004	6	..........a	-327.68
	45	4.6	-2.34950E-001	-2.85095E-001	-2.60022E-001	3.40913E-008	-4.04282E-008	7.45195E-008	-2.85000E-001	4.41706E-004	6	..........a	-327.68
	46	4.7	-2.33110E-001	-2.82953E-001	-2.58031E-001	3.36579E-008	-4.02605E-008	7.39184E-008	-2.83000E-001	4.37706E-004	6	..........a	-327.68
	47	4.8	-2.31039E-001	-2.81119E-001	-2.56079E-001	3.34168E-008	-4.04622E-008	7.38791E-008	-2.81000E-001	4.50206E-004	6	..........a	-327.68
	48	4.9	-2.29113E-001	-2.79040E-001	-2.54077E-001	3.29738E-008	-4.02862E-008	7.32600E-008	-2.79000E-001	4.37873E-004	6	..........a	-327.68
	49	5	-2.26969E-001	-2.77097E-001	-2.52033E-001	3.24287E-008	-3.99688E-008	7.23975E-008	-2.77000E-001	4.43373E-004	6	..........a	-327.68
	50	5.1	-2.25110E-001	-2.74989E-001	-2.50050E-001	3.18360E-008	-3.97811E-008	7.16171E-008	-2.75000E-001	4.47039E-004	6	..........a	-327.68
	51	5.2	-2.23025E-001	-2.73078E-001	-2.48051E-001	3.11619E-008	-3.92217E-008	7.03836E-008	-2.73000E-001	4.41039E-004	6	..........a	-327.68
	52	5.3	-2.21091E-001	-2.71037E-001	-2.46064E-001	3.06011E-008	-3.87473E-008	6.93485E-008	-2.71000E-001	4.42539E-004	6	..........a	-327.68
	53	5.4	-2.19028E-001	-2.69067E-001	-2.44048E-001	2.99944E-008	-3.78642E-008	6.78586E-008	-2.69000E-001	4.49706E-004	6	..........a	-327.68
	54	5.5	-2.17127E-001	-2.66945E-001	-2.42036E-001	2.93847E-008	-3.71611E-008	6.65458E-008	-2.67000E-001	4.37706E-004	6	..........a	-327.68
	55	5.6	-2.15042E-001	-2.65124E-001	-2.40083E-001	2.86829E-008	-3.61380E-008	6.48209E-008	-2.65000E-001	4.47206E-004	6	..........a	-327.68
	56	5.7	-2.13093E-001	-2.63007E-001	-2.38050E-001	2.80235E-008	-3.48112E-008	6.28347E-008	-2.63000E-001	4.41539E-004	6	..........a	-327.68
	57	5.8	-2.11001E-001	-2.61108E-001	-2.36055E-001	2.73294E-008	-3.40808E-008	6.14101E-008	-2.61000E-001	4.40706E-004	6	..........a	-327.68
	58	5.9	-2.09103E-001	-2.58970E-001	-2.34036E-001	2.65826E-008	-3.27693E-008	5.93519E-008	-2.59000E-001	4.42373E-004	6	..........a	-327.68
	59	6	-2.07048E-001	-2.57092E-001	-2.32070E-001	2.60049E-008	-3.16791E-008	5.76840E-008	-2.57000E-001	4.48706E-004	6	..........a	-327.68
	60	6.1	-2.05101E-001	-2.55047E-001	-2.30074E-001	2.54382E-008	-3.07547E-008	5.61928E-008	-2.55000E-001	4.42039E-004	6	..........a	-327.68
	61	6.2	-2.02976E-001	-2.53097E-001	-2.28037E-001	2.48447E-008	-2.91758E-008	5.40205E-008	-2.53000E-001	4.42373E-004	6	..........a	-327.68
	62	6.3	-2.01116E-001	-2.50990E-001	-2.26053E-001	2.44387E-008	-2.82807E-008	5.27194E-008	-2.51000E-001	4.41206E-004	6	..........a	-327.68
	63	6.4	-1.99048E-001	-2.49091E-001	-2.24069E-001	2.38573E-008	-2.70645E-008	5.09218E-008	-2.49000E-001	4.49039E-004	6	..........a	-327.68
	64	6.5	-1.97101E-001	-2.47006E-001	-2.22053E-001	2.35843E-008	-2.60557E-008	4.96400E-008	-2.47000E-001	4.43039E-004	6	..........a	-327.68
	65	6.6	-1.95011E-001	-2.45039E-001	-2.20025E-001	2.29302E-008	-2.48849E-008	4.78151E-008	-2.45000E-001	4.48206E-004	6	..........a	-327.68
	66	6.7	-1.93090E-001	-2.42992E-001	-2.18041E-001	2.26428E-008	-2.38535E-008	4.64963E-008	-2.43000E-001	4.39373E-004	6	..........a	-327.68
	67	6.8	-1.91082E-001	-2.41123E-001	-2.16103E-001	2.22701E-008	-2.29963E-008	4.52664E-008	-2.41000E-001	4.49373E-004	6	..........a	-327.68
	68	6.9	-1.89118E-001	-2.39036E-001	-2.14077E-001	2.19044E-008	-2.18955E-008	4.37999E-008	-2.39000E-001	4.40706E-004	6	..........a	-327.68
	69	7	-1.86978E-001	-2.37073E-001	-2.12026E-001	2.16147E-008	-2.08717E-008	4.24864E-008	-2.37000E-001	4.43706E-004	6	..........a	-327.68
	70	7.1	-1.85119E-001	-2.34971E-001	-2.10045E-001	2.13543E-008	-2.02417E-008	4.15960E-008	-2.35000E-001	4.44373E-004	6	..........a	-327.68
	71	7.2	-1.83069E-001	-2.33109E-001	-2.08089E-001	2.12593E-008	-1.95562E-008	4.08155E-008	-2.33000E-001	4.35873E-004	6	..........a	-327.68
	72	7.3	-1.81110E-001	-2.31027E-001	-2.06068E-001	2.08936E-008	-1.86838E-008	3.95774E-008	-2.31000E-001	4.39539E-004	6	..........a	-327.68
	73	7.4	-1.78981E-001	-2.29112E-001	-2.04047E-001	2.06339E-008	-1.78940E-008	3.85279E-008	-2.29000E-001	4.41206E-004	6	..........a	-327.68
	74	7.5	-1.77111E-001	-2.26966E-001	-2.02039E-001	2.04845E-008	-1.72676E-008	3.77521E-008	-2.27000E-001	4.47539E-004	6	..........a	-327.68
	75	7.6	-1.75062E-001	-2.25097E-001	-2.00079E-001	2.03925E-008	-1.66829E-008	3.70754E-008	-2.25000E-001	4.50373E-004	6	..........a	-327.68
	76	7.7	-1.73113E-001	-2.23003E-001	-1.98058E-001	2.04475E-008	-1.62141E-008	3.66617E-008	-2.23000E-001	4.38039E-004	6	..........a	-327.68
	77	7.8	-1.70998E-001	-2.21054E-001	-1.96026E-001	1.99978E-008	-1.55101E-008	3.55079E-008	-2.21000E-001	4.37206E-004	6	..........a	-327.68
	78	7.9	-1.69107E-001	-2.18988E-001	-1.94048E-001	1.99801E-008	-1.50040E-008	3.49841E-008	-2.19000E-001	4.48206E-004	6	..........a	-327.68
	79	8	-1.67037E-001	-2.17124E-001	-1.92080E-001	2.02388E-008	-1.48466E-008	3.50855E-008	-2.17000E-001	4.42873E-004	6	..........a	-327.68
	80	8.1	-1.65099E-001	-2.15007E-001	-1.90053E-001	1.98784E-008	-1.43176E-008	3.41960E-008	-2.15000E-001	4.32539E-004	6	..........a	-327.68
	81	8.2	-1.62958E-001	-2.13064E-001	-1.88011E-001	1.99198E-008	-1.40275E-008	3.39473E-008	-2.13000E-001	4.43206E-004	6	..........a	-327.68
	82	8.3	-1.61101E-001	-2.10970E-001	-1.86035E-001	1.99105E-008	-1.36632E-008	3.35736E-008	-2.11000E-001	4.38539E-004	6	..........a	-327.68
	83	8.4	-1.59033E-001	-2.09094E-001	-1.84063E-001	2.00028E-008	-1.34135E-008	3.34162E-008	-2.09000E-001	4.35873E-004	6	..........a	-327.68
	84	8.5	-1.57113E-001	-2.07030E-001	-1.82072E-001	1.99951E-008	-1.31788E-008	3.31739E-008	-2.07000E-001	4.39706E-004	6	..........a	-327.68
	85	8.6	-1.54980E-001	-2.05081E-001	-1.80031E-001	1.97844E-008	-1.25907E-008	3.23751E-008	-2.05000E-001	4.41539E-004	6	..........a	-327.68
	86	8.7	-1.53124E-001	-2.02958E-001	-1.78041E-001	2.00531E-008	-1.24080E-008	3.24611E-008	-2.03000E-001	4.39206E-004	6	..........a	-327.68
	87	8.8	-1.51064E-001	-2.01102E-001	-1.76083E-001	1.98244E-008	-1.22920E-008	3.21164E-008	-2.01000E-001	4.34706E-004	6	..........a	-327.68
	88	8.9	-1.49109E-001	-1.99024E-001	-1.74066E-001	1.99971E-008	-1.19733E-008	3.19704E-008	-1.99000E-001	4.45873E-004	6	..........a	-327.68
	89	9	-1.47001E-001	-1.97065E-001	-1.72033E-001	2.01338E-008	-1.17219E-008	3.18557E-008	-1.97000E-001	4.37706E-004	6	..........a	-327.68
	90	9.1	-1.45101E-001	-1.94996E-001	-1.70048E-001	2.00511E-008	-1.17772E-008	3.18284E-008	-1.95000E-001	4.42206E-004	6	..........a	-327.68
	91	9.2	-1.43039E-001	-1.93061E-001	-1.68050E-001	1.99051E-008	-1.15429E-008	3.14480E-008	-1.93000E-001	4.44206E-004	6	..........a	-327.68
	92	9.3	-1.41090E-001	-1.91067E-001	-1.66078E-001	2.02478E-008	-1.14899E-008	3.17377E-008	-1.91000E-001	4.42039E-004	6	..........a	-327.68
	93	9.4	-1.38937E-001	-1.89093E-001	-1.64015E-001	2.02588E-008	-1.12042E-008	3.14630E-008	-1.89000E-001	4.42539E-004	6	..........a	-327.68
	94	9.5	-1.37124E-001	-1.86956E-001	-1.62040E-001	2.02432E-008	-1.12128E-008	3.14560E-008	-1.87000E-001	4.34706E-004	6	..........a	-327.68
	95	9.6	-1.35048E-001	-1.85099E-001	-1.60073E-001	2.03048E-008	-1.09265E-008	3.12313E-008	-1.85000E-001	4.38539E-004	6	..........a	-327.68
	96	9.7	-1.33110E-001	-1.83028E-001	-1.58069E-001	2.02565E-008	-1.08345E-008	3.10910E-008	-1.83000E-001	4.41373E-004	6	..........a	-327.68
	97	9.8	-1.30976E-001	-1.81089E-001	-1.56033E-001	2.04278E-008	-1.06454E-008	3.10733E-008	-1.81000E-001	4.44206E-004	6	..........a	-327.68
	98	9.9	-1.29112E-001	-1.78962E-001	-1.54037E-001	2.03362E-008	-1.07414E-008	3.10776E-008	-1.79000E-001	4.40706E-004	6	..........a	-327.68
	99	10	-1.27080E-001	-1.77102E-001	-1.52091E-001	2.05142E-008	-1.05761E-008	3.10903E-008	-1.77000E-001	4.37873E-004	6	..........a	-327.68
	100	10.1	-1.25111E-001	-1.75042E-001	-1.50077E-001	2.06079E-008	-1.03034E-008	3.09113E-008	-1.75000E-001	4.38206E-004	6	..........a	-327.68
