EXPLAIN
TAG	SQUARE_WAVE
TITLE	LABEL	Square Wave Voltammetry	Test Identifier
DATE	LABEL	8/25/2020	Date
TIME	LABEL	14:40:08	Time
NOTES	NOTES	1	Notes...
	
PSTAT	PSTAT	REF600-24079	Potentiostat
VINIT	QUANT	-3.50000E-001	Initial E (V)
VFINAL	QUANT	-1.50000E-001	Final E (V)
STEPSIZE	QUANT	2.00000E+000	Step Size (mV)
TIMERRES	QUANT	3.33340E-005	&Timer Resolution
FREQUENCY	QUANT	5.00000E+000	Frequency (Hz)
PULSESIZE	QUANT	2.50000E+001	Pulse Size E (mV)
PULSEON	QUANT	2.00000E-001	Pulse &Time (s)
NOISEREJECT	TOGGLE	F	Noise Rejection
AREA	QUANT	2.00000E-002	Sample Area (cm^2)
IMODE	SELECTOR	1	I/E Range Mode
IRANGE	QUANT	1.00000E-003	Max Current (mA)
EQDELAY	IQUANT	10	Equil. Time (s)
IRCOMP	SELECTOR	0	IRComp
PFCOR	QUANT	5.00000E+001	PF Corr. (ohm)
CYCLES	IQUANT	101	C&ycles (#)
ELECTRODETYPE	SELECTOR	0	Electrode Type
STRIPPING	TOGGLE	F	Used for Stripping
POLARITY	TOGGLE	F	Signal Polarity
LINEFREQ	IQUANT	60	Line Frequency (Hz)
INTPERIOD	QUANT	3.3334E-005	Integration Period (s)
SEQUENCER	TOGGLE	TRUE	Run as Sequence
PSTATMODEL	IQUANT	4	Pstat Model
PSTATSECTION	LABEL	REF600-24079	Pstat Section
PSTATSERIALNO	LABEL	24079	Pstat Serial Number
CTRLMODE	IQUANT	1	Control Mode
ELECTROMETER	IQUANT	0	RE=0 or CS=1
IESTAB	IQUANT	2	I/E Stability
CASPEED	IQUANT	6	Control Amp Speed
CONVENTION	IQUANT	1	Current Convention
ICHRANGE	IQUANT	2	Ich Range
ICHRANGEMODE	TOGGLE	F	Ich Auto Range
ICHOFFSETENABLE	TOGGLE	F	Ich Offset Enable
ICHOFFSET	QUANT	0	Ich Offset (V)
ICHFILTER	IQUANT	2	Ich Filter
VCHRANGE	IQUANT	2	Vch Range
VCHRANGEMODE	TOGGLE	F	Vch Auto Range
VCHOFFSETENABLE	TOGGLE	F	Vch Offset Enable
VCHOFFSET	QUANT	0	Vch Offset (V)
VCHFILTER	IQUANT	2	Vch Filter
ACHRANGE	IQUANT	2	Ach Range
ACHOFFSETENABLE	TOGGLE	F	Ach Offset Enable
ACHOFFSET	QUANT	0	Ach Offset (V)
ACHFILTER	IQUANT	1	Ach Filter
IERANGELOWERLIMIT	IQUANT	1	I/E Range Lower Limit
IERANGEMODE	TOGGLE	F	I/E AutoRange
IERANGE	IQUANT	6	I/E Range
POSFEEDENABLE	TOGGLE	F	Positive Feedback IR Comp
POSFEEDRESISTANCE	QUANT	0	Positive Feedback Resistance (ohm)
ACHSELECT	IQUANT	0	Ach Select
SENSECABLEID	IQUANT	13	Sense Cable ID
PWRCABLEID	IQUANT	13	Power Cable ID
DCCALDATE	LABEL	6/30/2020	DC Calibration Date
ACCALDATE	LABEL	6/30/2020	AC Calibration Date
THERMOSELECT	IQUANT	1	Thermo Select
FRAMEWORKVERSION	LABEL	7.8.2	Framework Version
INSTRUMENTVERSION	LABEL	4.40	Instrument Version
CURVE	TABLE	101
	Pt	T	Vfwd	Vrev	Vstep	Ifwd	Irev	Idif	Sig	Ach	IERange	Over	Temp
	#	s	V	V	V	A	A	A	V	V	#	bits	deg C
	0	0.2	-3.25040E-001	-3.74996E-001	-3.50018E-001	-9.90968E-009	-2.98966E-008	1.99869E-008	-3.75000E-001	4.21373E-004	6	..........a	-327.68
	1	0.4	-3.22975E-001	-3.73037E-001	-3.48006E-001	-3.29234E-009	-2.70892E-008	2.37969E-008	-3.73000E-001	4.26123E-004	6	..........a	-327.68
	2	0.6	-3.21041E-001	-3.70973E-001	-3.46007E-001	-1.86299E-009	-2.58625E-008	2.39996E-008	-3.71000E-001	4.24289E-004	6	..........a	-327.68
	3	0.8	-3.19047E-001	-3.69124E-001	-3.44086E-001	-1.05088E-009	-2.51119E-008	2.40611E-008	-3.69000E-001	4.21373E-004	6	..........a	-327.68
	4	1	-3.17106E-001	-3.67015E-001	-3.42060E-001	-4.40139E-010	-2.44779E-008	2.40377E-008	-3.67000E-001	4.24789E-004	6	..........a	-327.68
	5	1.2	-3.14976E-001	-3.65091E-001	-3.40034E-001	5.39235E-011	-2.38408E-008	2.38947E-008	-3.65000E-001	4.31123E-004	6	..........a	-327.68
	6	1.4	-3.13097E-001	-3.62948E-001	-3.38023E-001	5.87825E-010	-2.34251E-008	2.40129E-008	-3.63000E-001	4.25956E-004	6	..........a	-327.68
	7	1.6	-3.11008E-001	-3.61099E-001	-3.36054E-001	1.10689E-009	-2.30347E-008	2.41416E-008	-3.61000E-001	4.25456E-004	6	..........a	-327.68
	8	1.8	-3.09094E-001	-3.59010E-001	-3.34052E-001	1.37076E-009	-2.26123E-008	2.39831E-008	-3.59000E-001	4.34373E-004	6	..........a	-327.68
	9	2	-3.06961E-001	-3.57104E-001	-3.32033E-001	1.77681E-009	-2.22356E-008	2.40124E-008	-3.57000E-001	4.28623E-004	6	..........a	-327.68
	10	2.2	-3.05106E-001	-3.54956E-001	-3.30031E-001	2.04284E-009	-2.18499E-008	2.38927E-008	-3.55000E-001	4.28456E-004	6	..........a	-327.68
	11	2.4	-3.03047E-001	-3.53087E-001	-3.28067E-001	2.40372E-009	-2.15325E-008	2.39362E-008	-3.53000E-001	4.31289E-004	6	..........a	-327.68
	12	2.6	-3.01102E-001	-3.50984E-001	-3.26043E-001	2.80027E-009	-2.12903E-008	2.40906E-008	-3.51000E-001	4.31873E-004	6	..........a	-327.68
	13	2.8	-2.98990E-001	-3.49054E-001	-3.24022E-001	3.20899E-009	-2.09094E-008	2.41184E-008	-3.49000E-001	4.24373E-004	6	..........a	-327.68
	14	3	-2.97089E-001	-3.46994E-001	-3.22042E-001	3.70989E-009	-2.06262E-008	2.43361E-008	-3.47000E-001	4.33456E-004	6	..........a	-327.68
	15	3.2	-2.95020E-001	-3.45128E-001	-3.20074E-001	4.02976E-009	-2.04800E-008	2.45098E-008	-3.45000E-001	4.30956E-004	6	..........a	-327.68
	16	3.4	-2.93063E-001	-3.43069E-001	-3.18066E-001	4.44315E-009	-2.02930E-008	2.47361E-008	-3.43000E-001	4.32123E-004	6	..........a	-327.68
	17	3.6	-2.90947E-001	-3.41093E-001	-3.16020E-001	4.99439E-009	-2.02038E-008	2.51982E-008	-3.41000E-001	4.33206E-004	6	..........a	-327.68
	18	3.8	-2.89119E-001	-3.38977E-001	-3.14048E-001	5.45711E-009	-2.00791E-008	2.55362E-008	-3.39000E-001	4.31956E-004	6	..........a	-327.68
	19	4	-2.87039E-001	-3.37099E-001	-3.12069E-001	5.93400E-009	-1.99140E-008	2.58480E-008	-3.37000E-001	4.30206E-004	6	..........a	-327.68
	20	4.2	-2.85107E-001	-3.35024E-001	-3.10065E-001	6.36556E-009	-1.98126E-008	2.61782E-008	-3.35000E-001	4.30289E-004	6	..........a	-327.68
	21	4.4	-2.82959E-001	-3.33066E-001	-3.08013E-001	6.93330E-009	-1.98441E-008	2.67774E-008	-3.33000E-001	4.34789E-004	6	..........a	-327.68
	22	4.6	-2.81116E-001	-3.30954E-001	-3.06035E-001	7.48904E-009	-1.98896E-008	2.73787E-008	-3.31000E-001	4.30956E-004	6	..........a	-327.68
	23	4.8	-2.79060E-001	-3.29098E-001	-3.04079E-001	8.00927E-009	-1.99128E-008	2.79221E-008	-3.29000E-001	4.34706E-004	6	..........a	-327.68
	24	5	-2.77104E-001	-3.27033E-001	-3.02069E-001	8.73619E-009	-2.00023E-008	2.87385E-008	-3.27000E-001	4.32123E-004	6	..........a	-327.68
	25	5.2	-2.74971E-001	-3.25063E-001	-3.00017E-001	9.35127E-009	-2.00365E-008	2.93877E-008	-3.25000E-001	4.28539E-004	6	..........a	-327.68
	26	5.4	-2.73088E-001	-3.22987E-001	-2.98037E-001	9.92418E-009	-2.01663E-008	3.00905E-008	-3.23000E-001	4.30206E-004	6	..........a	-327.68
	27	5.6	-2.71038E-001	-3.21036E-001	-2.96037E-001	1.05386E-008	-2.02603E-008	3.07989E-008	-3.21000E-001	4.22956E-004	6	..........a	-327.68
	28	5.8	-2.69087E-001	-3.19018E-001	-2.94053E-001	1.11680E-008	-2.04799E-008	3.16479E-008	-3.19000E-001	4.16456E-004	6	..........a	-327.68
	29	6	-2.66922E-001	-3.17108E-001	-2.92015E-001	1.17331E-008	-2.07284E-008	3.24615E-008	-3.17000E-001	4.18039E-004	6	..........a	-327.68
	30	6.2	-2.65122E-001	-3.14975E-001	-2.90049E-001	1.25452E-008	-2.10329E-008	3.35781E-008	-3.15000E-001	4.20206E-004	6	..........a	-327.68
	31	6.4	-2.63058E-001	-3.13094E-001	-2.88076E-001	1.30487E-008	-2.14060E-008	3.44547E-008	-3.13000E-001	4.21873E-004	6	..........a	-327.68
	32	6.6	-2.61061E-001	-3.11020E-001	-2.86040E-001	1.36972E-008	-2.16482E-008	3.53453E-008	-3.11000E-001	4.20873E-004	6	..........a	-327.68
	33	6.8	-2.58940E-001	-3.09083E-001	-2.84011E-001	1.42694E-008	-2.19344E-008	3.62038E-008	-3.09000E-001	4.21623E-004	6	..........a	-327.68
	34	7	-2.57089E-001	-3.06962E-001	-2.82026E-001	1.47780E-008	-2.24559E-008	3.72339E-008	-3.07000E-001	4.19456E-004	6	..........a	-327.68
	35	7.2	-2.55077E-001	-3.05108E-001	-2.80092E-001	1.53410E-008	-2.27926E-008	3.81337E-008	-3.05000E-001	4.23539E-004	6	..........a	-327.68
	36	7.4	-2.53100E-001	-3.03032E-001	-2.78066E-001	1.56594E-008	-2.32412E-008	3.89006E-008	-3.03000E-001	4.27373E-004	6	..........a	-327.68
	37	7.6	-2.50965E-001	-3.01087E-001	-2.76026E-001	1.60706E-008	-2.35072E-008	3.95779E-008	-3.01000E-001	4.27623E-004	6	..........a	-327.68
	38	7.8	-2.49092E-001	-2.98985E-001	-2.74039E-001	1.63908E-008	-2.38815E-008	4.02723E-008	-2.99000E-001	4.27956E-004	6	..........a	-327.68
	39	8	-2.47026E-001	-2.97066E-001	-2.72046E-001	1.66137E-008	-2.42757E-008	4.08894E-008	-2.97000E-001	4.29956E-004	6	..........a	-327.68
	40	8.2	-2.45075E-001	-2.94991E-001	-2.70033E-001	1.66982E-008	-2.45504E-008	4.12486E-008	-2.95000E-001	4.27289E-004	6	..........a	-327.68
	41	8.4	-2.42969E-001	-2.93062E-001	-2.68016E-001	1.70439E-008	-2.49529E-008	4.19968E-008	-2.93000E-001	4.27206E-004	6	..........a	-327.68
	42	8.6	-2.41113E-001	-2.90936E-001	-2.66024E-001	1.69329E-008	-2.51128E-008	4.20457E-008	-2.91000E-001	4.25956E-004	6	..........a	-327.68
	43	8.8	-2.39056E-001	-2.89110E-001	-2.64083E-001	1.70057E-008	-2.54508E-008	4.24566E-008	-2.89000E-001	4.22039E-004	6	..........a	-327.68
	44	9	-2.37098E-001	-2.86986E-001	-2.62042E-001	1.69659E-008	-2.55388E-008	4.25047E-008	-2.87000E-001	4.22456E-004	6	..........a	-327.68
	45	9.2	-2.34946E-001	-2.85074E-001	-2.60010E-001	1.69014E-008	-2.56720E-008	4.25734E-008	-2.85000E-001	4.27456E-004	6	..........a	-327.68
	46	9.4	-2.33102E-001	-2.82947E-001	-2.58025E-001	1.67774E-008	-2.56949E-008	4.24722E-008	-2.83000E-001	4.31456E-004	6	..........a	-327.68
	47	9.6	-2.31030E-001	-2.81115E-001	-2.56073E-001	1.65385E-008	-2.56225E-008	4.21610E-008	-2.81000E-001	4.24623E-004	6	..........a	-327.68
	48	9.8	-2.29101E-001	-2.79029E-001	-2.54065E-001	1.63428E-008	-2.55905E-008	4.19333E-008	-2.79000E-001	4.22706E-004	6	..........a	-327.68
	49	10	-2.26953E-001	-2.77091E-001	-2.52022E-001	1.61341E-008	-2.52810E-008	4.14151E-008	-2.77000E-001	4.23456E-004	6	..........a	-327.68
	50	10.2	-2.25091E-001	-2.74972E-001	-2.50032E-001	1.59905E-008	-2.51479E-008	4.11384E-008	-2.75000E-001	4.27289E-004	6	..........a	-327.68
	51	10.4	-2.23019E-001	-2.73065E-001	-2.48042E-001	1.56112E-008	-2.47056E-008	4.03168E-008	-2.73000E-001	4.22039E-004	6	..........a	-327.68
	52	10.6	-2.21086E-001	-2.71002E-001	-2.46044E-001	1.54060E-008	-2.42908E-008	3.96969E-008	-2.71000E-001	4.21039E-004	6	..........a	-327.68
	53	10.8	-2.18974E-001	-2.69036E-001	-2.44005E-001	1.52785E-008	-2.38253E-008	3.91038E-008	-2.69000E-001	4.17206E-004	6	..........a	-327.68
	54	11	-2.17104E-001	-2.66922E-001	-2.42013E-001	1.48625E-008	-2.32610E-008	3.81235E-008	-2.67000E-001	4.25623E-004	6	..........a	-327.68
	55	11.2	-2.15079E-001	-2.65124E-001	-2.40102E-001	1.45993E-008	-2.27060E-008	3.73052E-008	-2.65000E-001	4.26289E-004	6	..........a	-327.68
	56	11.4	-2.13031E-001	-2.62977E-001	-2.38004E-001	1.42649E-008	-2.22611E-008	3.65260E-008	-2.63000E-001	4.17706E-004	6	..........a	-327.68
	57	11.6	-2.10933E-001	-2.61100E-001	-2.36017E-001	1.39717E-008	-2.15065E-008	3.54782E-008	-2.61000E-001	4.22623E-004	6	..........a	-327.68
	58	11.8	-2.09090E-001	-2.58966E-001	-2.34028E-001	1.37768E-008	-2.07547E-008	3.45316E-008	-2.59000E-001	4.20456E-004	6	..........a	-327.68
	59	12	-2.07051E-001	-2.57091E-001	-2.32071E-001	1.34710E-008	-2.01281E-008	3.35991E-008	-2.57000E-001	4.21956E-004	6	..........a	-327.68
	60	12.2	-2.05084E-001	-2.55023E-001	-2.30054E-001	1.31399E-008	-1.92850E-008	3.24250E-008	-2.55000E-001	4.22123E-004	6	..........a	-327.68
	61	12.4	-2.02945E-001	-2.53085E-001	-2.28015E-001	1.29239E-008	-1.86670E-008	3.15909E-008	-2.53000E-001	4.26373E-004	6	..........a	-327.68
	62	12.6	-2.01106E-001	-2.50970E-001	-2.26038E-001	1.28389E-008	-1.78222E-008	3.06611E-008	-2.51000E-001	4.28123E-004	6	..........a	-327.68
	63	12.8	-1.99064E-001	-2.49066E-001	-2.24065E-001	1.25657E-008	-1.71449E-008	2.97106E-008	-2.49000E-001	4.22623E-004	6	..........a	-327.68
	64	13	-1.97093E-001	-2.46975E-001	-2.22034E-001	1.23953E-008	-1.65604E-008	2.89557E-008	-2.47000E-001	4.24873E-004	6	..........a	-327.68
	65	13.2	-1.94965E-001	-2.45023E-001	-2.19994E-001	1.21211E-008	-1.59153E-008	2.80364E-008	-2.45000E-001	4.25123E-004	6	..........a	-327.68
	66	13.4	-1.93089E-001	-2.42948E-001	-2.18018E-001	1.20541E-008	-1.53002E-008	2.73543E-008	-2.43000E-001	4.29373E-004	6	..........a	-327.68
	67	13.6	-1.91110E-001	-2.41125E-001	-2.16117E-001	1.19003E-008	-1.46221E-008	2.65224E-008	-2.41000E-001	4.20539E-004	6	..........a	-327.68
	68	13.8	-1.89104E-001	-2.39006E-001	-2.14055E-001	1.18006E-008	-1.40774E-008	2.58780E-008	-2.39000E-001	4.16123E-004	6	..........a	-327.68
	69	14	-1.86938E-001	-2.37015E-001	-2.11976E-001	1.17464E-008	-1.35885E-008	2.53349E-008	-2.37000E-001	4.20039E-004	6	..........a	-327.68
	70	14.2	-1.85113E-001	-2.34929E-001	-2.10021E-001	1.15847E-008	-1.30877E-008	2.46725E-008	-2.35000E-001	4.21373E-004	6	..........a	-327.68
	71	14.4	-1.83050E-001	-2.33089E-001	-2.08069E-001	1.15486E-008	-1.26389E-008	2.41874E-008	-2.33000E-001	4.26289E-004	6	..........a	-327.68
	72	14.6	-1.81085E-001	-2.30998E-001	-2.06041E-001	1.14057E-008	-1.22128E-008	2.36185E-008	-2.31000E-001	4.24706E-004	6	..........a	-327.68
	73	14.8	-1.78948E-001	-2.29063E-001	-2.04005E-001	1.14575E-008	-1.17429E-008	2.32005E-008	-2.29000E-001	4.26373E-004	6	..........a	-327.68
	74	15	-1.77090E-001	-2.26949E-001	-2.02020E-001	1.12670E-008	-1.14780E-008	2.27451E-008	-2.27000E-001	4.19623E-004	6	..........a	-327.68
	75	15.2	-1.75056E-001	-2.25078E-001	-2.00067E-001	1.13222E-008	-1.10657E-008	2.23878E-008	-2.25000E-001	4.22206E-004	6	..........a	-327.68
	76	15.4	-1.73101E-001	-2.22977E-001	-1.98039E-001	1.12665E-008	-1.07385E-008	2.20050E-008	-2.23000E-001	4.18956E-004	6	..........a	-327.68
	77	15.6	-1.70957E-001	-2.21030E-001	-1.95994E-001	1.12517E-008	-1.04747E-008	2.17264E-008	-2.21000E-001	4.28206E-004	6	..........a	-327.68
	78	15.8	-1.69083E-001	-2.18977E-001	-1.94030E-001	1.12562E-008	-1.02314E-008	2.14876E-008	-2.19000E-001	4.20206E-004	6	..........a	-327.68
	79	16	-1.67027E-001	-2.17125E-001	-1.92076E-001	1.13035E-008	-9.95802E-009	2.12615E-008	-2.17000E-001	4.24623E-004	6	..........a	-327.68
	80	16.2	-1.64959E-001	-2.14998E-001	-1.89978E-001	1.12582E-008	-9.70265E-009	2.09608E-008	-2.15000E-001	4.18289E-004	6	..........a	-327.68
	81	16.4	-1.62921E-001	-2.13038E-001	-1.87980E-001	1.12814E-008	-9.45679E-009	2.07381E-008	-2.13000E-001	4.21456E-004	6	..........a	-327.68
	82	16.6	-1.61101E-001	-2.10941E-001	-1.86021E-001	1.13102E-008	-9.25593E-009	2.05661E-008	-2.11000E-001	4.18039E-004	6	..........a	-327.68
	83	16.8	-1.59036E-001	-2.09079E-001	-1.84058E-001	1.14025E-008	-9.17342E-009	2.05760E-008	-2.09000E-001	4.17873E-004	6	..........a	-327.68
	84	17	-1.57096E-001	-2.06981E-001	-1.82039E-001	1.13447E-008	-8.89088E-009	2.02356E-008	-2.07000E-001	4.22956E-004	6	..........a	-327.68
	85	17.2	-1.54942E-001	-2.05073E-001	-1.80008E-001	1.13127E-008	-8.77337E-009	2.00861E-008	-2.05000E-001	4.24873E-004	6	..........a	-327.68
	86	17.4	-1.53114E-001	-2.02954E-001	-1.78034E-001	1.14497E-008	-8.52617E-009	1.99759E-008	-2.03000E-001	4.13956E-004	6	..........a	-327.68
	87	17.6	-1.51067E-001	-2.01093E-001	-1.76080E-001	1.14812E-008	-8.45216E-009	1.99334E-008	-2.01000E-001	4.20623E-004	6	..........a	-327.68
	88	17.8	-1.49099E-001	-1.99020E-001	-1.74060E-001	1.14209E-008	-8.42582E-009	1.98467E-008	-1.99000E-001	4.25206E-004	6	..........a	-327.68
	89	18	-1.46957E-001	-1.97069E-001	-1.72013E-001	1.15042E-008	-8.22163E-009	1.97258E-008	-1.97000E-001	4.18123E-004	6	..........a	-327.68
	90	18.2	-1.45090E-001	-1.94984E-001	-1.70037E-001	1.16949E-008	-7.92159E-009	1.96165E-008	-1.95000E-001	4.23289E-004	6	..........a	-327.68
	91	18.4	-1.43041E-001	-1.93037E-001	-1.68039E-001	1.16376E-008	-7.87325E-009	1.95108E-008	-1.93000E-001	4.12873E-004	6	..........a	-327.68
	92	18.6	-1.41086E-001	-1.91042E-001	-1.66064E-001	1.16954E-008	-7.89342E-009	1.95888E-008	-1.91000E-001	4.18623E-004	6	..........a	-327.68
	93	18.8	-1.38915E-001	-1.89106E-001	-1.64011E-001	1.16989E-008	-7.79457E-009	1.94935E-008	-1.89000E-001	4.16289E-004	6	..........a	-327.68
	94	19	-1.37119E-001	-1.86950E-001	-1.62034E-001	1.17411E-008	-7.69840E-009	1.94395E-008	-1.87000E-001	4.21123E-004	6	..........a	-327.68
	95	19.2	-1.35037E-001	-1.85080E-001	-1.60058E-001	1.17349E-008	-7.36452E-009	1.90994E-008	-1.85000E-001	4.18039E-004	6	..........a	-327.68
	96	19.4	-1.33037E-001	-1.83010E-001	-1.58024E-001	1.19041E-008	-7.34385E-009	1.92479E-008	-1.83000E-001	4.23456E-004	6	..........a	-327.68
	97	19.6	-1.30928E-001	-1.81076E-001	-1.56002E-001	1.20261E-008	-7.24617E-009	1.92723E-008	-1.81000E-001	4.16206E-004	6	..........a	-327.68
	98	19.8	-1.29087E-001	-1.78958E-001	-1.54023E-001	1.19779E-008	-7.22600E-009	1.92039E-008	-1.79000E-001	4.19873E-004	6	..........a	-327.68
	99	20	-1.27073E-001	-1.77092E-001	-1.52082E-001	1.20610E-008	-7.05315E-009	1.91141E-008	-1.77000E-001	4.22623E-004	6	..........a	-327.68
	100	20.2	-1.25105E-001	-1.75025E-001	-1.50065E-001	1.21156E-008	-7.01247E-009	1.91281E-008	-1.75000E-001	4.17539E-004	6	..........a	-327.68
