EXPLAIN
TAG	SQUARE_WAVE
TITLE	LABEL	Square Wave Voltammetry	Test Identifier
DATE	LABEL	8/25/2020	Date
TIME	LABEL	13:08:50	Time
NOTES	NOTES	1	Notes...
	
PSTAT	PSTAT	REF600-24079	Potentiostat
VINIT	QUANT	-3.50000E-001	Initial E (V)
VFINAL	QUANT	-1.50000E-001	Final E (V)
STEPSIZE	QUANT	2.00000E+000	Step Size (mV)
TIMERRES	QUANT	3.33340E-005	&Timer Resolution
FREQUENCY	QUANT	1.00000E+001	Frequency (Hz)
PULSESIZE	QUANT	2.50000E+001	Pulse Size E (mV)
PULSEON	QUANT	1.00000E-001	Pulse &Time (s)
NOISEREJECT	TOGGLE	F	Noise Rejection
AREA	QUANT	2.00000E-002	Sample Area (cm^2)
IMODE	SELECTOR	1	I/E Range Mode
IRANGE	QUANT	1.00000E-003	Max Current (mA)
EQDELAY	IQUANT	10	Equil. Time (s)
IRCOMP	SELECTOR	0	IRComp
PFCOR	QUANT	5.00000E+001	PF Corr. (ohm)
CYCLES	IQUANT	101	C&ycles (#)
ELECTRODETYPE	SELECTOR	0	Electrode Type
STRIPPING	TOGGLE	F	Used for Stripping
POLARITY	TOGGLE	F	Signal Polarity
LINEFREQ	IQUANT	60	Line Frequency (Hz)
INTPERIOD	QUANT	3.3334E-005	Integration Period (s)
SEQUENCER	TOGGLE	TRUE	Run as Sequence
PSTATMODEL	IQUANT	4	Pstat Model
PSTATSECTION	LABEL	REF600-24079	Pstat Section
PSTATSERIALNO	LABEL	24079	Pstat Serial Number
CTRLMODE	IQUANT	1	Control Mode
ELECTROMETER	IQUANT	0	RE=0 or CS=1
IESTAB	IQUANT	2	I/E Stability
CASPEED	IQUANT	6	Control Amp Speed
CONVENTION	IQUANT	1	Current Convention
ICHRANGE	IQUANT	2	Ich Range
ICHRANGEMODE	TOGGLE	F	Ich Auto Range
ICHOFFSETENABLE	TOGGLE	F	Ich Offset Enable
ICHOFFSET	QUANT	0	Ich Offset (V)
ICHFILTER	IQUANT	2	Ich Filter
VCHRANGE	IQUANT	2	Vch Range
VCHRANGEMODE	TOGGLE	F	Vch Auto Range
VCHOFFSETENABLE	TOGGLE	F	Vch Offset Enable
VCHOFFSET	QUANT	0	Vch Offset (V)
VCHFILTER	IQUANT	2	Vch Filter
ACHRANGE	IQUANT	2	Ach Range
ACHOFFSETENABLE	TOGGLE	F	Ach Offset Enable
ACHOFFSET	QUANT	0	Ach Offset (V)
ACHFILTER	IQUANT	1	Ach Filter
IERANGELOWERLIMIT	IQUANT	1	I/E Range Lower Limit
IERANGEMODE	TOGGLE	F	I/E AutoRange
IERANGE	IQUANT	6	I/E Range
POSFEEDENABLE	TOGGLE	F	Positive Feedback IR Comp
POSFEEDRESISTANCE	QUANT	0	Positive Feedback Resistance (ohm)
ACHSELECT	IQUANT	0	Ach Select
SENSECABLEID	IQUANT	13	Sense Cable ID
PWRCABLEID	IQUANT	13	Power Cable ID
DCCALDATE	LABEL	6/30/2020	DC Calibration Date
ACCALDATE	LABEL	6/30/2020	AC Calibration Date
THERMOSELECT	IQUANT	1	Thermo Select
FRAMEWORKVERSION	LABEL	7.8.2	Framework Version
INSTRUMENTVERSION	LABEL	4.40	Instrument Version
CURVE	TABLE	101
	Pt	T	Vfwd	Vrev	Vstep	Ifwd	Irev	Idif	Sig	Ach	IERange	Over	Temp
	#	s	V	V	V	A	A	A	V	V	#	bits	deg C
	0	0.1	-3.25012E-001	-3.74976E-001	-3.49994E-001	-7.49304E-009	-3.58646E-008	2.83716E-008	-3.75000E-001	4.33873E-004	6	..........a	-327.68
	1	0.2	-3.22946E-001	-3.73022E-001	-3.47984E-001	3.22799E-009	-3.10927E-008	3.43207E-008	-3.73000E-001	4.22706E-004	6	..........a	-327.68
	2	0.3	-3.21033E-001	-3.70888E-001	-3.45960E-001	5.53929E-009	-2.94135E-008	3.49528E-008	-3.71000E-001	4.28539E-004	6	..........a	-327.68
	3	0.4	-3.19026E-001	-3.69116E-001	-3.44071E-001	6.82679E-009	-2.82863E-008	3.51131E-008	-3.69000E-001	4.22873E-004	6	..........a	-327.68
	4	0.5	-3.17064E-001	-3.66965E-001	-3.42015E-001	7.72357E-009	-2.75353E-008	3.52588E-008	-3.67000E-001	4.25873E-004	6	..........a	-327.68
	5	0.6	-3.14905E-001	-3.65067E-001	-3.39986E-001	8.44566E-009	-2.69735E-008	3.54192E-008	-3.65000E-001	4.28873E-004	6	..........a	-327.68
	6	0.7	-3.13084E-001	-3.62898E-001	-3.37991E-001	9.00173E-009	-2.63568E-008	3.53585E-008	-3.63000E-001	4.32539E-004	6	..........a	-327.68
	7	0.8	-3.10980E-001	-3.61074E-001	-3.36027E-001	9.57113E-009	-2.59704E-008	3.55415E-008	-3.61000E-001	4.14539E-004	6	..........a	-327.68
	8	0.9	-3.09024E-001	-3.58963E-001	-3.33994E-001	1.02022E-008	-2.56393E-008	3.58416E-008	-3.59000E-001	4.21039E-004	6	..........a	-327.68
	9	1	-3.06921E-001	-3.57089E-001	-3.32005E-001	1.07663E-008	-2.52220E-008	3.59882E-008	-3.57000E-001	4.23706E-004	6	..........a	-327.68
	10	1.1	-3.05072E-001	-3.54928E-001	-3.30000E-001	1.13314E-008	-2.48712E-008	3.62026E-008	-3.55000E-001	4.17373E-004	6	..........a	-327.68
	11	1.2	-3.03020E-001	-3.53071E-001	-3.28046E-001	1.18781E-008	-2.46389E-008	3.65170E-008	-3.53000E-001	4.28206E-004	6	..........a	-327.68
	12	1.3	-3.01081E-001	-3.50952E-001	-3.26017E-001	1.23522E-008	-2.44902E-008	3.68424E-008	-3.51000E-001	4.28206E-004	6	..........a	-327.68
	13	1.4	-2.98936E-001	-3.49036E-001	-3.23986E-001	1.31283E-008	-2.42218E-008	3.73501E-008	-3.49000E-001	4.26873E-004	6	..........a	-327.68
	14	1.5	-2.97063E-001	-3.46951E-001	-3.22007E-001	1.38617E-008	-2.42515E-008	3.81132E-008	-3.47000E-001	4.32206E-004	6	..........a	-327.68
	15	1.6	-2.95001E-001	-3.45125E-001	-3.20063E-001	1.46294E-008	-2.42072E-008	3.88366E-008	-3.45000E-001	4.22539E-004	6	..........a	-327.68
	16	1.7	-2.92935E-001	-3.42957E-001	-3.17946E-001	1.51895E-008	-2.41802E-008	3.93697E-008	-3.43000E-001	4.25039E-004	6	..........a	-327.68
	17	1.8	-2.90877E-001	-3.41044E-001	-3.15960E-001	1.60110E-008	-2.41855E-008	4.01964E-008	-3.41000E-001	4.18706E-004	6	..........a	-327.68
	18	1.9	-2.89088E-001	-3.38888E-001	-3.13988E-001	1.69791E-008	-2.44635E-008	4.14426E-008	-3.39000E-001	4.26206E-004	6	..........a	-327.68
	19	2	-2.86982E-001	-3.37075E-001	-3.12028E-001	1.77348E-008	-2.46479E-008	4.23827E-008	-3.37000E-001	4.22706E-004	6	..........a	-327.68
	20	2.1	-2.85095E-001	-3.34959E-001	-3.10027E-001	1.84969E-008	-2.46242E-008	4.31212E-008	-3.35000E-001	4.32373E-004	6	..........a	-327.68
	21	2.2	-2.82914E-001	-3.33061E-001	-3.07987E-001	1.96101E-008	-2.49109E-008	4.45210E-008	-3.33000E-001	4.32873E-004	6	..........a	-327.68
	22	2.3	-2.81105E-001	-3.30915E-001	-3.06010E-001	2.04869E-008	-2.54223E-008	4.59092E-008	-3.31000E-001	4.23206E-004	6	..........a	-327.68
	23	2.4	-2.79017E-001	-3.29061E-001	-3.04039E-001	2.15063E-008	-2.56944E-008	4.72007E-008	-3.29000E-001	4.27039E-004	6	..........a	-327.68
	24	2.5	-2.77079E-001	-3.26981E-001	-3.02030E-001	2.26675E-008	-2.62658E-008	4.89332E-008	-3.27000E-001	4.27373E-004	6	..........a	-327.68
	25	2.6	-2.74945E-001	-3.25041E-001	-2.99993E-001	2.40100E-008	-2.68365E-008	5.08465E-008	-3.25000E-001	4.29706E-004	6	..........a	-327.68
	26	2.7	-2.73055E-001	-3.22951E-001	-2.98003E-001	2.49331E-008	-2.73969E-008	5.23300E-008	-3.23000E-001	4.24039E-004	6	..........a	-327.68
	27	2.8	-2.70975E-001	-3.21006E-001	-2.95991E-001	2.60879E-008	-2.77880E-008	5.38759E-008	-3.21000E-001	4.33206E-004	6	..........a	-327.68
	28	2.9	-2.69033E-001	-3.18993E-001	-2.94013E-001	2.72587E-008	-2.84744E-008	5.57331E-008	-3.19000E-001	4.34206E-004	6	..........a	-327.68
	29	3	-2.66860E-001	-3.17067E-001	-2.91964E-001	2.84869E-008	-2.92965E-008	5.77834E-008	-3.17000E-001	4.32539E-004	6	..........a	-327.68
	30	3.1	-2.65118E-001	-3.14915E-001	-2.90016E-001	2.96224E-008	-3.00809E-008	5.97033E-008	-3.15000E-001	4.27539E-004	6	..........a	-327.68
	31	3.2	-2.62951E-001	-3.13069E-001	-2.88010E-001	3.05525E-008	-3.10400E-008	6.15925E-008	-3.13000E-001	4.33039E-004	6	..........a	-327.68
	32	3.3	-2.61067E-001	-3.10976E-001	-2.86022E-001	3.16673E-008	-3.20785E-008	6.37458E-008	-3.11000E-001	4.23539E-004	6	..........a	-327.68
	33	3.4	-2.58909E-001	-3.09050E-001	-2.83979E-001	3.25597E-008	-3.27599E-008	6.53196E-008	-3.09000E-001	4.33539E-004	6	..........a	-327.68
	34	3.5	-2.57078E-001	-3.06920E-001	-2.81999E-001	3.34718E-008	-3.37987E-008	6.72706E-008	-3.07000E-001	4.27373E-004	6	..........a	-327.68
	35	3.6	-2.54957E-001	-3.05083E-001	-2.80020E-001	3.41323E-008	-3.45948E-008	6.87271E-008	-3.05000E-001	4.25206E-004	6	..........a	-327.68
	36	3.7	-2.53082E-001	-3.03011E-001	-2.78046E-001	3.48967E-008	-3.55409E-008	7.04376E-008	-3.03000E-001	4.25873E-004	6	..........a	-327.68
	37	3.8	-2.50934E-001	-3.01075E-001	-2.76005E-001	3.54124E-008	-3.62744E-008	7.16868E-008	-3.01000E-001	4.21706E-004	6	..........a	-327.68
	38	3.9	-2.49053E-001	-2.98942E-001	-2.73998E-001	3.58078E-008	-3.72858E-008	7.30936E-008	-2.99000E-001	4.31373E-004	6	..........a	-327.68
	39	4	-2.46956E-001	-2.97041E-001	-2.71999E-001	3.61382E-008	-3.79472E-008	7.40854E-008	-2.97000E-001	4.26706E-004	6	..........a	-327.68
	40	4.1	-2.45017E-001	-2.94974E-001	-2.69996E-001	3.64086E-008	-3.87380E-008	7.51466E-008	-2.95000E-001	4.28873E-004	6	..........a	-327.68
	41	4.2	-2.42888E-001	-2.92909E-001	-2.67899E-001	3.63379E-008	-3.92888E-008	7.56266E-008	-2.93000E-001	4.25706E-004	6	..........a	-327.68
	42	4.3	-2.41125E-001	-2.90885E-001	-2.66005E-001	3.61885E-008	-3.97741E-008	7.59627E-008	-2.91000E-001	4.29873E-004	6	..........a	-327.68
	43	4.4	-2.38978E-001	-2.89082E-001	-2.64030E-001	3.60592E-008	-4.03746E-008	7.64337E-008	-2.89000E-001	4.37873E-004	6	..........a	-327.68
	44	4.5	-2.37042E-001	-2.86951E-001	-2.61997E-001	3.58008E-008	-4.07096E-008	7.65104E-008	-2.87000E-001	4.30373E-004	6	..........a	-327.68
	45	4.6	-2.34897E-001	-2.85075E-001	-2.59986E-001	3.56014E-008	-4.07923E-008	7.63937E-008	-2.85000E-001	4.31373E-004	6	..........a	-327.68
	46	4.7	-2.33087E-001	-2.82909E-001	-2.57998E-001	3.48393E-008	-4.08133E-008	7.56526E-008	-2.83000E-001	4.32539E-004	6	..........a	-327.68
	47	4.8	-2.30973E-001	-2.81109E-001	-2.56041E-001	3.44440E-008	-4.08176E-008	7.52616E-008	-2.81000E-001	4.24206E-004	6	..........a	-327.68
	48	4.9	-2.29083E-001	-2.78981E-001	-2.54032E-001	3.36305E-008	-4.03956E-008	7.40261E-008	-2.79000E-001	4.38539E-004	6	..........a	-327.68
	49	5	-2.26922E-001	-2.77063E-001	-2.51993E-001	3.30201E-008	-3.99252E-008	7.29453E-008	-2.77000E-001	4.33039E-004	6	..........a	-327.68
	50	5.1	-2.25073E-001	-2.74939E-001	-2.50006E-001	3.24937E-008	-3.93314E-008	7.18251E-008	-2.75000E-001	4.27873E-004	6	..........a	-327.68
	51	5.2	-2.22963E-001	-2.73043E-001	-2.48003E-001	3.16043E-008	-3.87217E-008	7.03259E-008	-2.73000E-001	4.29706E-004	6	..........a	-327.68
	52	5.3	-2.21052E-001	-2.70997E-001	-2.46024E-001	3.08018E-008	-3.80499E-008	6.88518E-008	-2.71000E-001	4.39373E-004	6	..........a	-327.68
	53	5.4	-2.18969E-001	-2.69028E-001	-2.43998E-001	3.00787E-008	-3.72418E-008	6.73206E-008	-2.69000E-001	4.33539E-004	6	..........a	-327.68
	54	5.5	-2.17128E-001	-2.66867E-001	-2.41998E-001	2.92603E-008	-3.58763E-008	6.51366E-008	-2.67000E-001	4.23039E-004	6	..........a	-327.68
	55	5.6	-2.14969E-001	-2.65120E-001	-2.40044E-001	2.86472E-008	-3.49299E-008	6.35771E-008	-2.65000E-001	4.26706E-004	6	..........a	-327.68
	56	5.7	-2.13054E-001	-2.62972E-001	-2.38013E-001	2.80015E-008	-3.39404E-008	6.19419E-008	-2.63000E-001	4.36206E-004	6	..........a	-327.68
	57	5.8	-2.10918E-001	-2.61067E-001	-2.35992E-001	2.71437E-008	-3.27119E-008	5.98556E-008	-2.61000E-001	4.22873E-004	6	..........a	-327.68
	58	5.9	-2.09078E-001	-2.58908E-001	-2.33993E-001	2.64249E-008	-3.14521E-008	5.78770E-008	-2.59000E-001	4.26373E-004	6	..........a	-327.68
	59	6	-2.06963E-001	-2.57066E-001	-2.32014E-001	2.58769E-008	-3.04200E-008	5.62968E-008	-2.57000E-001	4.25873E-004	6	..........a	-327.68
	60	6.1	-2.05077E-001	-2.54964E-001	-2.30021E-001	2.53481E-008	-2.91198E-008	5.44679E-008	-2.55000E-001	4.19539E-004	6	..........a	-327.68
	61	6.2	-2.02921E-001	-2.53069E-001	-2.27995E-001	2.45420E-008	-2.78526E-008	5.23947E-008	-2.53000E-001	4.25539E-004	6	..........a	-327.68
	62	6.3	-2.01075E-001	-2.50934E-001	-2.26005E-001	2.40106E-008	-2.66518E-008	5.06624E-008	-2.51000E-001	4.27873E-004	6	..........a	-327.68
	63	6.4	-1.98990E-001	-2.49036E-001	-2.24013E-001	2.34792E-008	-2.53616E-008	4.88409E-008	-2.49000E-001	4.35539E-004	6	..........a	-327.68
	64	6.5	-1.97064E-001	-2.46949E-001	-2.22007E-001	2.29478E-008	-2.44712E-008	4.74190E-008	-2.47000E-001	4.31039E-004	6	..........a	-327.68
	65	6.6	-1.94964E-001	-2.45007E-001	-2.19985E-001	2.24421E-008	-2.33034E-008	4.57455E-008	-2.45000E-001	4.16539E-004	6	..........a	-327.68
	66	6.7	-1.93042E-001	-2.42875E-001	-2.17959E-001	2.21554E-008	-2.22186E-008	4.43740E-008	-2.43000E-001	4.34206E-004	6	..........a	-327.68
	67	6.8	-1.91018E-001	-2.41120E-001	-2.16069E-001	2.19177E-008	-2.11911E-008	4.31088E-008	-2.41000E-001	4.31373E-004	6	..........a	-327.68
	68	6.9	-1.89080E-001	-2.38976E-001	-2.14028E-001	2.13733E-008	-2.03343E-008	4.17076E-008	-2.39000E-001	4.26539E-004	6	..........a	-327.68
	69	7	-1.86900E-001	-2.37037E-001	-2.11968E-001	2.12376E-008	-1.96489E-008	4.08865E-008	-2.37000E-001	4.13373E-004	6	..........a	-327.68
	70	7.1	-1.85095E-001	-2.34894E-001	-2.09994E-001	2.08169E-008	-1.86388E-008	3.94557E-008	-2.35000E-001	4.25206E-004	6	..........a	-327.68
	71	7.2	-1.82991E-001	-2.33079E-001	-2.08035E-001	2.05855E-008	-1.81354E-008	3.87209E-008	-2.33000E-001	4.21873E-004	6	..........a	-327.68
	72	7.3	-1.81076E-001	-2.30966E-001	-2.06021E-001	2.03588E-008	-1.70786E-008	3.74374E-008	-2.31000E-001	4.32373E-004	6	..........a	-327.68
	73	7.4	-1.78922E-001	-2.29082E-001	-2.04002E-001	2.01615E-008	-1.64045E-008	3.65660E-008	-2.29000E-001	4.24039E-004	6	..........a	-327.68
	74	7.5	-1.77079E-001	-2.26924E-001	-2.02002E-001	2.02035E-008	-1.58454E-008	3.60489E-008	-2.27000E-001	4.26873E-004	6	..........a	-327.68
	75	7.6	-1.75013E-001	-2.25057E-001	-2.00035E-001	1.98011E-008	-1.54097E-008	3.52108E-008	-2.25000E-001	4.27373E-004	6	..........a	-327.68
	76	7.7	-1.73077E-001	-2.22958E-001	-1.98018E-001	1.96874E-008	-1.47883E-008	3.44757E-008	-2.23000E-001	4.29039E-004	6	..........a	-327.68
	77	7.8	-1.70945E-001	-2.21036E-001	-1.95990E-001	1.95504E-008	-1.44869E-008	3.40373E-008	-2.21000E-001	4.23039E-004	6	..........a	-327.68
	78	7.9	-1.69065E-001	-2.18948E-001	-1.94007E-001	1.93770E-008	-1.38108E-008	3.31879E-008	-2.19000E-001	4.26873E-004	6	..........a	-327.68
	79	8	-1.66969E-001	-2.17129E-001	-1.92049E-001	1.95094E-008	-1.37478E-008	3.32572E-008	-2.17000E-001	4.25539E-004	6	..........a	-327.68
	80	8.1	-1.65009E-001	-2.14965E-001	-1.89987E-001	1.93397E-008	-1.32661E-008	3.26058E-008	-2.15000E-001	4.32206E-004	6	..........a	-327.68
	81	8.2	-1.62880E-001	-2.13012E-001	-1.87946E-001	1.90943E-008	-1.28090E-008	3.19034E-008	-2.13000E-001	4.28873E-004	6	..........a	-327.68
	82	8.3	-1.61073E-001	-2.10898E-001	-1.85985E-001	1.89767E-008	-1.26007E-008	3.15774E-008	-2.11000E-001	4.33539E-004	6	..........a	-327.68
	83	8.4	-1.58982E-001	-2.09070E-001	-1.84026E-001	1.91640E-008	-1.23066E-008	3.14707E-008	-2.09000E-001	4.30706E-004	6	..........a	-327.68
	84	8.5	-1.57081E-001	-2.06970E-001	-1.82025E-001	1.92457E-008	-1.19506E-008	3.11963E-008	-2.07000E-001	4.22539E-004	6	..........a	-327.68
	85	8.6	-1.54922E-001	-2.05053E-001	-1.79987E-001	1.91710E-008	-1.18633E-008	3.10343E-008	-2.05000E-001	4.28206E-004	6	..........a	-327.68
	86	8.7	-1.53109E-001	-2.02917E-001	-1.78013E-001	1.92850E-008	-1.17122E-008	3.09973E-008	-2.03000E-001	4.35206E-004	6	..........a	-327.68
	87	8.8	-1.51001E-001	-2.01079E-001	-1.76040E-001	1.92854E-008	-1.13022E-008	3.05876E-008	-2.01000E-001	4.27706E-004	6	..........a	-327.68
	88	8.9	-1.49081E-001	-1.98982E-001	-1.74032E-001	1.91427E-008	-1.11648E-008	3.03075E-008	-1.99000E-001	4.27373E-004	6	..........a	-327.68
	89	9	-1.46950E-001	-1.97048E-001	-1.71999E-001	1.91544E-008	-1.09455E-008	3.00998E-008	-1.97000E-001	4.27539E-004	6	..........a	-327.68
	90	9.1	-1.45043E-001	-1.94954E-001	-1.69998E-001	1.93044E-008	-1.07038E-008	3.00082E-008	-1.95000E-001	4.30206E-004	6	..........a	-327.68
	91	9.2	-1.42984E-001	-1.93020E-001	-1.68002E-001	1.93534E-008	-1.06691E-008	3.00225E-008	-1.93000E-001	4.26539E-004	6	..........a	-327.68
	92	9.3	-1.41056E-001	-1.90983E-001	-1.66019E-001	1.92774E-008	-1.05028E-008	2.97801E-008	-1.91000E-001	4.35039E-004	6	..........a	-327.68
	93	9.4	-1.38870E-001	-1.89047E-001	-1.63958E-001	1.92440E-008	-1.03247E-008	2.95688E-008	-1.89000E-001	4.21539E-004	6	..........a	-327.68
	94	9.5	-1.37117E-001	-1.86903E-001	-1.62010E-001	1.92854E-008	-1.03687E-008	2.96541E-008	-1.87000E-001	4.34873E-004	6	..........a	-327.68
	95	9.6	-1.34977E-001	-1.85085E-001	-1.60031E-001	1.94557E-008	-1.02581E-008	2.97138E-008	-1.85000E-001	4.31206E-004	6	..........a	-327.68
	96	9.7	-1.33079E-001	-1.82959E-001	-1.58019E-001	1.93397E-008	-1.01250E-008	2.94648E-008	-1.83000E-001	4.29706E-004	6	..........a	-327.68
	97	9.8	-1.30911E-001	-1.81069E-001	-1.55990E-001	1.93344E-008	-9.87601E-009	2.92104E-008	-1.81000E-001	4.29873E-004	6	..........a	-327.68
	98	9.9	-1.29072E-001	-1.78924E-001	-1.53998E-001	1.95461E-008	-9.96302E-009	2.95091E-008	-1.79000E-001	4.37039E-004	6	..........a	-327.68
	99	10	-1.27003E-001	-1.77083E-001	-1.52043E-001	1.94167E-008	-9.69065E-009	2.91074E-008	-1.77000E-001	4.29373E-004	6	..........a	-327.68
	100	10.1	-1.25085E-001	-1.74980E-001	-1.50032E-001	1.96314E-008	-9.62964E-009	2.92611E-008	-1.75000E-001	4.26039E-004	6	..........a	-327.68
