EXPLAIN
TAG	SQUARE_WAVE
TITLE	LABEL	Square Wave Voltammetry	Test Identifier
DATE	LABEL	8/31/2020	Date
TIME	LABEL	12:25:25	Time
NOTES	NOTES	1	Notes...
	
PSTAT	PSTAT	REF600-24079	Potentiostat
VINIT	QUANT	-3.50000E-001	Initial E (V)
VFINAL	QUANT	-1.50000E-001	Final E (V)
STEPSIZE	QUANT	2.00000E+000	Step Size (mV)
TIMERRES	QUANT	3.33340E-005	&Timer Resolution
FREQUENCY	QUANT	1.00000E+001	Frequency (Hz)
PULSESIZE	QUANT	2.50000E+001	Pulse Size E (mV)
PULSEON	QUANT	1.00000E-001	Pulse &Time (s)
NOISEREJECT	TOGGLE	F	Noise Rejection
AREA	QUANT	2.00000E-002	Sample Area (cm^2)
IMODE	SELECTOR	1	I/E Range Mode
IRANGE	QUANT	1.00000E-003	Max Current (mA)
EQDELAY	IQUANT	10	Equil. Time (s)
IRCOMP	SELECTOR	0	IRComp
PFCOR	QUANT	5.00000E+001	PF Corr. (ohm)
CYCLES	IQUANT	101	C&ycles (#)
ELECTRODETYPE	SELECTOR	0	Electrode Type
STRIPPING	TOGGLE	F	Used for Stripping
POLARITY	TOGGLE	F	Signal Polarity
LINEFREQ	IQUANT	60	Line Frequency (Hz)
INTPERIOD	QUANT	3.3334E-005	Integration Period (s)
SEQUENCER	TOGGLE	TRUE	Run as Sequence
PSTATMODEL	IQUANT	4	Pstat Model
PSTATSECTION	LABEL	REF600-24079	Pstat Section
PSTATSERIALNO	LABEL	24079	Pstat Serial Number
CTRLMODE	IQUANT	1	Control Mode
ELECTROMETER	IQUANT	0	RE=0 or CS=1
IESTAB	IQUANT	2	I/E Stability
CASPEED	IQUANT	6	Control Amp Speed
CONVENTION	IQUANT	1	Current Convention
ICHRANGE	IQUANT	2	Ich Range
ICHRANGEMODE	TOGGLE	F	Ich Auto Range
ICHOFFSETENABLE	TOGGLE	F	Ich Offset Enable
ICHOFFSET	QUANT	0	Ich Offset (V)
ICHFILTER	IQUANT	2	Ich Filter
VCHRANGE	IQUANT	2	Vch Range
VCHRANGEMODE	TOGGLE	F	Vch Auto Range
VCHOFFSETENABLE	TOGGLE	F	Vch Offset Enable
VCHOFFSET	QUANT	0	Vch Offset (V)
VCHFILTER	IQUANT	2	Vch Filter
ACHRANGE	IQUANT	2	Ach Range
ACHOFFSETENABLE	TOGGLE	F	Ach Offset Enable
ACHOFFSET	QUANT	0	Ach Offset (V)
ACHFILTER	IQUANT	1	Ach Filter
IERANGELOWERLIMIT	IQUANT	1	I/E Range Lower Limit
IERANGEMODE	TOGGLE	F	I/E AutoRange
IERANGE	IQUANT	6	I/E Range
POSFEEDENABLE	TOGGLE	F	Positive Feedback IR Comp
POSFEEDRESISTANCE	QUANT	0	Positive Feedback Resistance (ohm)
ACHSELECT	IQUANT	0	Ach Select
SENSECABLEID	IQUANT	13	Sense Cable ID
PWRCABLEID	IQUANT	13	Power Cable ID
DCCALDATE	LABEL	6/30/2020	DC Calibration Date
ACCALDATE	LABEL	6/30/2020	AC Calibration Date
THERMOSELECT	IQUANT	1	Thermo Select
FRAMEWORKVERSION	LABEL	7.8.2	Framework Version
INSTRUMENTVERSION	LABEL	4.40	Instrument Version
CURVE	TABLE	101
	Pt	T	Vfwd	Vrev	Vstep	Ifwd	Irev	Idif	Sig	Ach	IERange	Over	Temp
	#	s	V	V	V	A	A	A	V	V	#	bits	deg C
	0	0.1	-3.24853E-001	-3.74879E-001	-3.49866E-001	-9.79566E-009	-3.77315E-008	2.79359E-008	-3.75000E-001	3.73039E-004	6	..........a	-327.68
	1	0.2	-3.22846E-001	-3.72884E-001	-3.47865E-001	1.10172E-009	-3.34243E-008	3.45261E-008	-3.73000E-001	3.67706E-004	6	..........a	-327.68
	2	0.3	-3.20886E-001	-3.70775E-001	-3.45831E-001	3.62805E-009	-3.17878E-008	3.54158E-008	-3.71000E-001	3.64206E-004	6	..........a	-327.68
	3	0.4	-3.18910E-001	-3.68901E-001	-3.43906E-001	4.95188E-009	-3.09470E-008	3.58989E-008	-3.69000E-001	3.67706E-004	6	..........a	-327.68
	4	0.5	-3.16803E-001	-3.66906E-001	-3.41854E-001	6.26905E-009	-3.05376E-008	3.68067E-008	-3.67000E-001	3.76039E-004	6	..........a	-327.68
	5	0.6	-3.14865E-001	-3.64873E-001	-3.39869E-001	7.30085E-009	-3.02269E-008	3.75278E-008	-3.65000E-001	3.82039E-004	6	..........a	-327.68
	6	0.7	-3.12897E-001	-3.62810E-001	-3.37854E-001	8.60601E-009	-2.98015E-008	3.84076E-008	-3.63000E-001	3.67873E-004	6	..........a	-327.68
	7	0.8	-3.10886E-001	-3.60865E-001	-3.35875E-001	9.62014E-009	-2.96729E-008	3.92930E-008	-3.61000E-001	3.78539E-004	6	..........a	-327.68
	8	0.9	-3.08821E-001	-3.58867E-001	-3.33844E-001	1.05853E-008	-2.96622E-008	4.02475E-008	-3.59000E-001	3.56206E-004	6	..........a	-327.68
	9	1	-3.06812E-001	-3.56827E-001	-3.31819E-001	1.18634E-008	-2.97212E-008	4.15846E-008	-3.57000E-001	3.58206E-004	6	..........a	-327.68
	10	1.1	-3.04864E-001	-3.54819E-001	-3.29841E-001	1.31119E-008	-2.99586E-008	4.30705E-008	-3.55000E-001	3.50373E-004	6	..........a	-327.68
	11	1.2	-3.02892E-001	-3.52886E-001	-3.27889E-001	1.44668E-008	-3.01433E-008	4.46100E-008	-3.53000E-001	3.56706E-004	6	..........a	-327.68
	12	1.3	-3.00859E-001	-3.50869E-001	-3.25864E-001	1.60253E-008	-3.04826E-008	4.65079E-008	-3.51000E-001	3.66873E-004	6	..........a	-327.68
	13	1.4	-2.98840E-001	-3.48878E-001	-3.23859E-001	1.76908E-008	-3.10120E-008	4.87029E-008	-3.49000E-001	3.68539E-004	6	..........a	-327.68
	14	1.5	-2.96884E-001	-3.46854E-001	-3.21869E-001	1.91677E-008	-3.16284E-008	5.07961E-008	-3.47000E-001	3.78873E-004	6	..........a	-327.68
	15	1.6	-2.94891E-001	-3.44917E-001	-3.19904E-001	2.12176E-008	-3.21518E-008	5.33695E-008	-3.45000E-001	3.60706E-004	6	..........a	-327.68
	16	1.7	-2.92787E-001	-3.42894E-001	-3.17840E-001	2.32195E-008	-3.31786E-008	5.63982E-008	-3.43000E-001	3.80539E-004	6	..........a	-327.68
	17	1.8	-2.90802E-001	-3.40892E-001	-3.15847E-001	2.53158E-008	-3.40414E-008	5.93572E-008	-3.41000E-001	3.77206E-004	6	..........a	-327.68
	18	1.9	-2.88915E-001	-3.38839E-001	-3.13877E-001	2.77188E-008	-3.52252E-008	6.29440E-008	-3.39000E-001	3.74373E-004	6	..........a	-327.68
	19	2	-2.86865E-001	-3.36864E-001	-3.11864E-001	3.02268E-008	-3.66684E-008	6.68952E-008	-3.37000E-001	3.73206E-004	6	..........a	-327.68
	20	2.1	-2.84821E-001	-3.34878E-001	-3.09850E-001	3.30355E-008	-3.82299E-008	7.12654E-008	-3.35000E-001	3.73206E-004	6	..........a	-327.68
	21	2.2	-2.82809E-001	-3.32802E-001	-3.07805E-001	3.58788E-008	-3.97968E-008	7.56756E-008	-3.33000E-001	3.83206E-004	6	..........a	-327.68
	22	2.3	-2.80898E-001	-3.30813E-001	-3.05855E-001	3.88869E-008	-4.15944E-008	8.04812E-008	-3.31000E-001	3.80373E-004	6	..........a	-327.68
	23	2.4	-2.78869E-001	-3.28878E-001	-3.03873E-001	4.21533E-008	-4.38713E-008	8.60246E-008	-3.29000E-001	3.92206E-004	6	..........a	-327.68
	24	2.5	-2.76845E-001	-3.26881E-001	-3.01863E-001	4.54594E-008	-4.62253E-008	9.16847E-008	-3.27000E-001	3.77706E-004	6	..........a	-327.68
	25	2.6	-2.74833E-001	-3.24867E-001	-2.99850E-001	4.88321E-008	-4.89003E-008	9.77324E-008	-3.25000E-001	3.83539E-004	6	..........a	-327.68
	26	2.7	-2.72880E-001	-3.22846E-001	-2.97863E-001	5.19825E-008	-5.15750E-008	1.03558E-007	-3.23000E-001	3.92873E-004	6	..........a	-327.68
	27	2.8	-2.70889E-001	-3.20854E-001	-2.95872E-001	5.56307E-008	-5.44934E-008	1.10124E-007	-3.21000E-001	3.88539E-004	6	..........a	-327.68
	28	2.9	-2.68867E-001	-3.18859E-001	-2.93863E-001	5.92138E-008	-5.76544E-008	1.16868E-007	-3.19000E-001	3.77206E-004	6	..........a	-327.68
	29	3	-2.66780E-001	-3.16829E-001	-2.91804E-001	6.25499E-008	-6.09318E-008	1.23482E-007	-3.17000E-001	3.75706E-004	6	..........a	-327.68
	30	3.1	-2.64881E-001	-3.14866E-001	-2.89874E-001	6.58840E-008	-6.42876E-008	1.30172E-007	-3.15000E-001	3.69539E-004	6	..........a	-327.68
	31	3.2	-2.62909E-001	-3.12894E-001	-2.87901E-001	6.88427E-008	-6.79061E-008	1.36749E-007	-3.13000E-001	3.77039E-004	6	..........a	-327.68
	32	3.3	-2.60800E-001	-3.10862E-001	-2.85831E-001	7.17194E-008	-7.16499E-008	1.43369E-007	-3.11000E-001	3.89039E-004	6	..........a	-327.68
	33	3.4	-2.58812E-001	-3.08861E-001	-2.83837E-001	7.42964E-008	-7.51516E-008	1.49448E-007	-3.09000E-001	3.91039E-004	6	..........a	-327.68
	34	3.5	-2.56844E-001	-3.06836E-001	-2.81840E-001	7.68237E-008	-7.87898E-008	1.55613E-007	-3.07000E-001	3.86206E-004	6	..........a	-327.68
	35	3.6	-2.54897E-001	-3.04889E-001	-2.79893E-001	7.85509E-008	-8.24219E-008	1.60973E-007	-3.05000E-001	3.91039E-004	6	..........a	-327.68
	36	3.7	-2.52841E-001	-3.02895E-001	-2.77868E-001	8.04808E-008	-8.61820E-008	1.66663E-007	-3.03000E-001	3.74206E-004	6	..........a	-327.68
	37	3.8	-2.50819E-001	-3.00873E-001	-2.75846E-001	8.15936E-008	-8.93254E-008	1.70919E-007	-3.01000E-001	3.82039E-004	6	..........a	-327.68
	38	3.9	-2.48876E-001	-2.98852E-001	-2.73864E-001	8.26998E-008	-9.26545E-008	1.75354E-007	-2.99000E-001	3.82539E-004	6	..........a	-327.68
	39	4	-2.46871E-001	-2.96897E-001	-2.71884E-001	8.29745E-008	-9.54776E-008	1.78452E-007	-2.97000E-001	3.89373E-004	6	..........a	-327.68
	40	4.1	-2.44876E-001	-2.94891E-001	-2.69884E-001	8.30408E-008	-9.79275E-008	1.80968E-007	-2.95000E-001	3.81539E-004	6	..........a	-327.68
	41	4.2	-2.42775E-001	-2.92807E-001	-2.67791E-001	8.27298E-008	-9.99358E-008	1.82666E-007	-2.93000E-001	3.83539E-004	6	..........a	-327.68
	42	4.3	-2.40893E-001	-2.90804E-001	-2.65848E-001	8.20220E-008	-1.01725E-007	1.83747E-007	-2.91000E-001	3.88206E-004	6	..........a	-327.68
	43	4.4	-2.38889E-001	-2.88927E-001	-2.63908E-001	8.07562E-008	-1.02756E-007	1.83512E-007	-2.89000E-001	3.77873E-004	6	..........a	-327.68
	44	4.5	-2.36859E-001	-2.86876E-001	-2.61867E-001	7.94400E-008	-1.03433E-007	1.82873E-007	-2.87000E-001	3.95206E-004	6	..........a	-327.68
	45	4.6	-2.34802E-001	-2.84870E-001	-2.59836E-001	7.79982E-008	-1.03588E-007	1.81586E-007	-2.85000E-001	3.90373E-004	6	..........a	-327.68
	46	4.7	-2.32845E-001	-2.82811E-001	-2.57828E-001	7.59309E-008	-1.03238E-007	1.79169E-007	-2.83000E-001	3.88873E-004	6	..........a	-327.68
	47	4.8	-2.30856E-001	-2.80912E-001	-2.55884E-001	7.38930E-008	-1.02545E-007	1.76438E-007	-2.81000E-001	3.86039E-004	6	..........a	-327.68
	48	4.9	-2.28789E-001	-2.78880E-001	-2.53834E-001	7.14253E-008	-1.01430E-007	1.72856E-007	-2.79000E-001	3.77039E-004	6	..........a	-327.68
	49	5	-2.26808E-001	-2.76893E-001	-2.51850E-001	6.90044E-008	-9.94724E-008	1.68477E-007	-2.77000E-001	3.86539E-004	6	..........a	-327.68
	50	5.1	-2.24868E-001	-2.74847E-001	-2.49858E-001	6.66401E-008	-9.72088E-008	1.63849E-007	-2.75000E-001	3.82039E-004	6	..........a	-327.68
	51	5.2	-2.22868E-001	-2.72898E-001	-2.47883E-001	6.42531E-008	-9.46531E-008	1.58906E-007	-2.73000E-001	3.78539E-004	6	..........a	-327.68
	52	5.3	-2.20864E-001	-2.70886E-001	-2.45875E-001	6.13864E-008	-9.16867E-008	1.53073E-007	-2.71000E-001	3.85206E-004	6	..........a	-327.68
	53	5.4	-2.18859E-001	-2.68880E-001	-2.43869E-001	5.89117E-008	-8.82406E-008	1.47152E-007	-2.69000E-001	3.80373E-004	6	..........a	-327.68
	54	5.5	-2.16898E-001	-2.66804E-001	-2.41851E-001	5.63401E-008	-8.47199E-008	1.41060E-007	-2.67000E-001	3.75039E-004	6	..........a	-327.68
	55	5.6	-2.14878E-001	-2.64910E-001	-2.39894E-001	5.36997E-008	-8.08557E-008	1.34555E-007	-2.65000E-001	3.88706E-004	6	..........a	-327.68
	56	5.7	-2.12859E-001	-2.62892E-001	-2.37875E-001	5.12178E-008	-7.68092E-008	1.28027E-007	-2.63000E-001	3.96206E-004	6	..........a	-327.68
	57	5.8	-2.10830E-001	-2.60860E-001	-2.35845E-001	4.88991E-008	-7.31104E-008	1.22010E-007	-2.61000E-001	4.18039E-004	6	..........a	-327.68
	58	5.9	-2.08857E-001	-2.58814E-001	-2.33835E-001	4.65105E-008	-6.90452E-008	1.15556E-007	-2.59000E-001	3.95539E-004	6	..........a	-327.68
	59	6	-2.06876E-001	-2.56865E-001	-2.31870E-001	4.42295E-008	-6.50707E-008	1.09300E-007	-2.57000E-001	4.04373E-004	6	..........a	-327.68
	60	6.1	-2.04802E-001	-2.54874E-001	-2.29838E-001	4.22713E-008	-6.11419E-008	1.03413E-007	-2.55000E-001	4.08206E-004	6	..........a	-327.68
	61	6.2	-2.02803E-001	-2.52865E-001	-2.27834E-001	4.03654E-008	-5.72140E-008	9.75794E-008	-2.53000E-001	3.97039E-004	6	..........a	-327.68
	62	6.3	-2.00865E-001	-2.50833E-001	-2.25849E-001	3.82021E-008	-5.35412E-008	9.17433E-008	-2.51000E-001	4.11039E-004	6	..........a	-327.68
	63	6.4	-1.98879E-001	-2.48866E-001	-2.23872E-001	3.65809E-008	-4.97787E-008	8.63596E-008	-2.49000E-001	3.93706E-004	6	..........a	-327.68
	64	6.5	-1.96851E-001	-2.46859E-001	-2.21855E-001	3.49424E-008	-4.62886E-008	8.12310E-008	-2.47000E-001	3.89206E-004	6	..........a	-327.68
	65	6.6	-1.94849E-001	-2.44864E-001	-2.19856E-001	3.32975E-008	-4.32393E-008	7.65367E-008	-2.45000E-001	3.97706E-004	6	..........a	-327.68
	66	6.7	-1.92886E-001	-2.42774E-001	-2.17830E-001	3.21150E-008	-4.01459E-008	7.22609E-008	-2.43000E-001	3.91206E-004	6	..........a	-327.68
	67	6.8	-1.90904E-001	-2.40867E-001	-2.15886E-001	3.08142E-008	-3.73322E-008	6.81463E-008	-2.41000E-001	3.73206E-004	6	..........a	-327.68
	68	6.9	-1.88780E-001	-2.38917E-001	-2.13849E-001	2.95963E-008	-3.45535E-008	6.41498E-008	-2.39000E-001	3.86706E-004	6	..........a	-327.68
	69	7	-1.86808E-001	-2.36882E-001	-2.11845E-001	2.86802E-008	-3.21432E-008	6.08234E-008	-2.37000E-001	3.81706E-004	6	..........a	-327.68
	70	7.1	-1.84883E-001	-2.34815E-001	-2.09849E-001	2.76044E-008	-3.00369E-008	5.76413E-008	-2.35000E-001	3.98039E-004	6	..........a	-327.68
	71	7.2	-1.82856E-001	-2.32858E-001	-2.07857E-001	2.66383E-008	-2.76486E-008	5.42869E-008	-2.33000E-001	3.66706E-004	6	..........a	-327.68
	72	7.3	-1.80823E-001	-2.30863E-001	-2.05843E-001	2.59826E-008	-2.56857E-008	5.16682E-008	-2.31000E-001	3.88039E-004	6	..........a	-327.68
	73	7.4	-1.78808E-001	-2.28829E-001	-2.03818E-001	2.49824E-008	-2.41945E-008	4.91769E-008	-2.29000E-001	3.99373E-004	6	..........a	-327.68
	74	7.5	-1.76847E-001	-2.26814E-001	-2.01831E-001	2.43033E-008	-2.26963E-008	4.69996E-008	-2.27000E-001	3.87706E-004	6	..........a	-327.68
	75	7.6	-1.74892E-001	-2.24866E-001	-1.99879E-001	2.38600E-008	-2.11808E-008	4.50407E-008	-2.25000E-001	3.91539E-004	6	..........a	-327.68
	76	7.7	-1.72854E-001	-2.22866E-001	-1.97860E-001	2.32789E-008	-2.01126E-008	4.33915E-008	-2.23000E-001	3.82873E-004	6	..........a	-327.68
	77	7.8	-1.70834E-001	-2.20862E-001	-1.95848E-001	2.26811E-008	-1.87788E-008	4.14599E-008	-2.21000E-001	3.73039E-004	6	..........a	-327.68
	78	7.9	-1.68861E-001	-2.18838E-001	-1.93849E-001	2.25221E-008	-1.78047E-008	4.03268E-008	-2.19000E-001	3.90373E-004	6	..........a	-327.68
	79	8	-1.66866E-001	-2.16942E-001	-1.91904E-001	2.19687E-008	-1.67829E-008	3.87516E-008	-2.17000E-001	3.88373E-004	6	..........a	-327.68
	80	8.1	-1.64745E-001	-2.14876E-001	-1.89810E-001	2.18367E-008	-1.61298E-008	3.79665E-008	-2.15000E-001	3.86706E-004	6	..........a	-327.68
	81	8.2	-1.62802E-001	-2.12818E-001	-1.87810E-001	2.15337E-008	-1.52207E-008	3.67543E-008	-2.13000E-001	3.89206E-004	6	..........a	-327.68
	82	8.3	-1.60914E-001	-2.10829E-001	-1.85871E-001	2.12220E-008	-1.44406E-008	3.56625E-008	-2.11000E-001	3.87539E-004	6	..........a	-327.68
	83	8.4	-1.58876E-001	-2.08876E-001	-1.83876E-001	2.10313E-008	-1.39925E-008	3.50238E-008	-2.09000E-001	3.90039E-004	6	..........a	-327.68
	84	8.5	-1.56834E-001	-2.06884E-001	-1.81859E-001	2.09456E-008	-1.34208E-008	3.43664E-008	-2.07000E-001	3.94539E-004	6	..........a	-327.68
	85	8.6	-1.54809E-001	-2.04782E-001	-1.79796E-001	2.06822E-008	-1.27240E-008	3.34062E-008	-2.05000E-001	3.66539E-004	6	..........a	-327.68
	86	8.7	-1.52888E-001	-2.02812E-001	-1.77850E-001	2.05515E-008	-1.23040E-008	3.28555E-008	-2.03000E-001	3.74539E-004	6	..........a	-327.68
	87	8.8	-1.50870E-001	-2.00874E-001	-1.75872E-001	2.07479E-008	-1.18896E-008	3.26375E-008	-2.01000E-001	3.97706E-004	6	..........a	-327.68
	88	8.9	-1.48856E-001	-1.98882E-001	-1.73869E-001	2.03162E-008	-1.15652E-008	3.18814E-008	-1.99000E-001	3.75039E-004	6	..........a	-327.68
	89	9	-1.46836E-001	-1.96847E-001	-1.71841E-001	2.03715E-008	-1.12682E-008	3.16397E-008	-1.97000E-001	3.95206E-004	6	..........a	-327.68
	90	9.1	-1.44865E-001	-1.94847E-001	-1.69856E-001	2.04108E-008	-1.08675E-008	3.12783E-008	-1.95000E-001	3.82706E-004	6	..........a	-327.68
	91	9.2	-1.42883E-001	-1.92868E-001	-1.67876E-001	2.03295E-008	-1.05781E-008	3.09076E-008	-1.93000E-001	3.79539E-004	6	..........a	-327.68
	92	9.3	-1.40875E-001	-1.90890E-001	-1.65882E-001	2.02382E-008	-1.02924E-008	3.05306E-008	-1.91000E-001	3.81873E-004	6	..........a	-327.68
	93	9.4	-1.38792E-001	-1.88769E-001	-1.63780E-001	2.03388E-008	-1.02354E-008	3.05742E-008	-1.89000E-001	3.83039E-004	6	..........a	-327.68
	94	9.5	-1.36878E-001	-1.86816E-001	-1.61847E-001	2.02128E-008	-9.92735E-009	3.01402E-008	-1.87000E-001	3.91206E-004	6	..........a	-327.68
	95	9.6	-1.34900E-001	-1.84880E-001	-1.59890E-001	2.02528E-008	-9.71099E-009	2.99638E-008	-1.85000E-001	3.99373E-004	6	..........a	-327.68
	96	9.7	-1.32806E-001	-1.82852E-001	-1.57829E-001	2.03205E-008	-9.50263E-009	2.98231E-008	-1.83000E-001	3.78039E-004	6	..........a	-327.68
	97	9.8	-1.30800E-001	-1.80813E-001	-1.55806E-001	2.04759E-008	-9.22826E-009	2.97041E-008	-1.81000E-001	3.80873E-004	6	..........a	-327.68
	98	9.9	-1.28858E-001	-1.78810E-001	-1.53834E-001	2.03558E-008	-9.15258E-009	2.95084E-008	-1.79000E-001	4.00539E-004	6	..........a	-327.68
	99	10	-1.26882E-001	-1.76858E-001	-1.51870E-001	2.06262E-008	-8.85388E-009	2.94801E-008	-1.77000E-001	3.86373E-004	6	..........a	-327.68
	100	10.1	-1.24834E-001	-1.74869E-001	-1.49851E-001	2.04085E-008	-8.68685E-009	2.90954E-008	-1.75000E-001	3.86039E-004	6	..........a	-327.68
