EXPLAIN
TAG	SQUARE_WAVE
TITLE	LABEL	Square Wave Voltammetry	Test Identifier
DATE	LABEL	8/25/2020	Date
TIME	LABEL	14:42:19	Time
NOTES	NOTES	1	Notes...
	
PSTAT	PSTAT	REF600-24079	Potentiostat
VINIT	QUANT	-3.50000E-001	Initial E (V)
VFINAL	QUANT	-1.50000E-001	Final E (V)
STEPSIZE	QUANT	2.00000E+000	Step Size (mV)
TIMERRES	QUANT	3.33340E-005	&Timer Resolution
FREQUENCY	QUANT	5.00000E+002	Frequency (Hz)
PULSESIZE	QUANT	2.50000E+001	Pulse Size E (mV)
PULSEON	QUANT	2.00000E-003	Pulse &Time (s)
NOISEREJECT	TOGGLE	F	Noise Rejection
AREA	QUANT	2.00000E-002	Sample Area (cm^2)
IMODE	SELECTOR	1	I/E Range Mode
IRANGE	QUANT	1.00000E-002	Max Current (mA)
EQDELAY	IQUANT	10	Equil. Time (s)
IRCOMP	SELECTOR	0	IRComp
PFCOR	QUANT	5.00000E+001	PF Corr. (ohm)
CYCLES	IQUANT	101	C&ycles (#)
ELECTRODETYPE	SELECTOR	0	Electrode Type
STRIPPING	TOGGLE	F	Used for Stripping
POLARITY	TOGGLE	F	Signal Polarity
LINEFREQ	IQUANT	60	Line Frequency (Hz)
INTPERIOD	QUANT	3.3334E-005	Integration Period (s)
SEQUENCER	TOGGLE	TRUE	Run as Sequence
PSTATMODEL	IQUANT	4	Pstat Model
PSTATSECTION	LABEL	REF600-24079	Pstat Section
PSTATSERIALNO	LABEL	24079	Pstat Serial Number
CTRLMODE	IQUANT	1	Control Mode
ELECTROMETER	IQUANT	0	RE=0 or CS=1
IESTAB	IQUANT	2	I/E Stability
CASPEED	IQUANT	6	Control Amp Speed
CONVENTION	IQUANT	1	Current Convention
ICHRANGE	IQUANT	2	Ich Range
ICHRANGEMODE	TOGGLE	F	Ich Auto Range
ICHOFFSETENABLE	TOGGLE	F	Ich Offset Enable
ICHOFFSET	QUANT	0	Ich Offset (V)
ICHFILTER	IQUANT	1	Ich Filter
VCHRANGE	IQUANT	2	Vch Range
VCHRANGEMODE	TOGGLE	F	Vch Auto Range
VCHOFFSETENABLE	TOGGLE	F	Vch Offset Enable
VCHOFFSET	QUANT	0	Vch Offset (V)
VCHFILTER	IQUANT	1	Vch Filter
ACHRANGE	IQUANT	2	Ach Range
ACHOFFSETENABLE	TOGGLE	F	Ach Offset Enable
ACHOFFSET	QUANT	0	Ach Offset (V)
ACHFILTER	IQUANT	1	Ach Filter
IERANGELOWERLIMIT	IQUANT	1	I/E Range Lower Limit
IERANGEMODE	TOGGLE	F	I/E AutoRange
IERANGE	IQUANT	7	I/E Range
POSFEEDENABLE	TOGGLE	F	Positive Feedback IR Comp
POSFEEDRESISTANCE	QUANT	0	Positive Feedback Resistance (ohm)
ACHSELECT	IQUANT	0	Ach Select
SENSECABLEID	IQUANT	13	Sense Cable ID
PWRCABLEID	IQUANT	13	Power Cable ID
DCCALDATE	LABEL	6/30/2020	DC Calibration Date
ACCALDATE	LABEL	6/30/2020	AC Calibration Date
THERMOSELECT	IQUANT	1	Thermo Select
FRAMEWORKVERSION	LABEL	7.8.2	Framework Version
INSTRUMENTVERSION	LABEL	4.40	Instrument Version
CURVE	TABLE	101
	Pt	T	Vfwd	Vrev	Vstep	Ifwd	Irev	Idif	Sig	Ach	IERange	Over	Temp
	#	s	V	V	V	A	A	A	V	V	#	bits	deg C
	0	0.002	-3.23907E-001	-3.63407E-001	-3.43657E-001	1.17636E-007	-1.32362E-005	1.33538E-005	-3.75000E-001	6.16039E-004	7	..........a	-327.68
	1	0.004	-3.40208E-001	-3.55182E-001	-3.47695E-001	1.22048E-005	-9.95124E-006	2.21560E-005	-3.73000E-001	3.41039E-004	7	..........a	-327.68
	2	0.006	-3.35224E-001	-3.54124E-001	-3.44674E-001	1.05282E-005	-1.04383E-005	2.09665E-005	-3.71000E-001	3.32706E-004	7	..........a	-327.68
	3	0.008	-3.33699E-001	-3.51974E-001	-3.42837E-001	1.08066E-005	-1.03315E-005	2.11380E-005	-3.69000E-001	3.57706E-004	7	..........a	-327.68
	4	0.01	-3.31691E-001	-3.49957E-001	-3.40824E-001	1.07741E-005	-1.03285E-005	2.11025E-005	-3.67000E-001	3.41039E-004	7	..........a	-327.68
	5	0.012	-3.29657E-001	-3.47991E-001	-3.38824E-001	1.08028E-005	-1.03118E-005	2.11145E-005	-3.65000E-001	3.82706E-004	7	..........a	-327.68
	6	0.014	-3.27608E-001	-3.45982E-001	-3.36795E-001	1.07988E-005	-1.03065E-005	2.11052E-005	-3.63000E-001	3.82706E-004	7	..........a	-327.68
	7	0.016	-3.25616E-001	-3.44032E-001	-3.34824E-001	1.08013E-005	-1.03033E-005	2.11045E-005	-3.61000E-001	3.66039E-004	7	..........a	-327.68
	8	0.018	-3.23608E-001	-3.41924E-001	-3.32766E-001	1.08091E-005	-1.02938E-005	2.11029E-005	-3.59000E-001	3.66039E-004	7	..........a	-327.68
	9	0.02	-3.21633E-001	-3.39949E-001	-3.30791E-001	1.08071E-005	-1.02906E-005	2.10977E-005	-3.57000E-001	3.66039E-004	7	..........a	-327.68
	10	0.022	-3.19691E-001	-3.37941E-001	-3.28816E-001	1.08136E-005	-1.02821E-005	2.10957E-005	-3.55000E-001	3.24373E-004	7	..........a	-327.68
	11	0.024	-3.17558E-001	-3.35891E-001	-3.26724E-001	1.08104E-005	-1.02789E-005	2.10894E-005	-3.53000E-001	3.74373E-004	7	..........a	-327.68
	12	0.026	-3.15616E-001	-3.33957E-001	-3.24787E-001	1.08158E-005	-1.02758E-005	2.10915E-005	-3.51000E-001	3.49373E-004	7	..........a	-327.68
	13	0.028	-3.13608E-001	-3.31957E-001	-3.22783E-001	1.08159E-005	-1.02636E-005	2.10795E-005	-3.49000E-001	3.57706E-004	7	..........a	-327.68
	14	0.03	-3.11558E-001	-3.29999E-001	-3.20778E-001	1.08129E-005	-1.02609E-005	2.10739E-005	-3.47000E-001	3.16039E-004	7	..........a	-327.68
	15	0.032	-3.09624E-001	-3.27974E-001	-3.18799E-001	1.08179E-005	-1.02659E-005	2.10839E-005	-3.45000E-001	3.32706E-004	7	..........a	-327.68
	16	0.034	-3.07624E-001	-3.25983E-001	-3.16803E-001	1.08149E-005	-1.02531E-005	2.10680E-005	-3.43000E-001	3.66039E-004	7	..........a	-327.68
	17	0.036	-3.05591E-001	-3.23983E-001	-3.14787E-001	1.08186E-005	-1.02519E-005	2.10705E-005	-3.41000E-001	3.16039E-004	7	..........a	-327.68
	18	0.038	-3.03574E-001	-3.21966E-001	-3.12770E-001	1.08163E-005	-1.02489E-005	2.10652E-005	-3.39000E-001	3.57706E-004	7	..........a	-327.68
	19	0.04	-3.01541E-001	-3.19966E-001	-3.10753E-001	1.08129E-005	-1.02423E-005	2.10552E-005	-3.37000E-001	4.07706E-004	7	..........a	-327.68
	20	0.042	-2.99641E-001	-3.18041E-001	-3.08841E-001	1.08234E-005	-1.02466E-005	2.10700E-005	-3.35000E-001	3.82706E-004	7	..........a	-327.68
	21	0.044	-2.97541E-001	-3.16091E-001	-3.06816E-001	1.08188E-005	-1.02313E-005	2.10500E-005	-3.33000E-001	3.24373E-004	7	..........a	-327.68
	22	0.046	-2.95608E-001	-3.14057E-001	-3.04833E-001	1.08163E-005	-1.02356E-005	2.10519E-005	-3.31000E-001	3.16039E-004	7	..........a	-327.68
	23	0.048	-2.93524E-001	-3.11974E-001	-3.02749E-001	1.08239E-005	-1.02304E-005	2.10544E-005	-3.29000E-001	3.07706E-004	7	..........a	-327.68
	24	0.05	-2.91499E-001	-3.09991E-001	-3.00745E-001	1.08214E-005	-1.02196E-005	2.10410E-005	-3.27000E-001	3.66039E-004	7	..........a	-327.68
	25	0.052	-2.89558E-001	-3.08024E-001	-2.98791E-001	1.08153E-005	-1.02211E-005	2.10364E-005	-3.25000E-001	3.24373E-004	7	..........a	-327.68
	26	0.054	-2.87541E-001	-3.06033E-001	-2.96787E-001	1.08273E-005	-1.02226E-005	2.10499E-005	-3.23000E-001	3.91039E-004	7	..........a	-327.68
	27	0.056	-2.85616E-001	-3.04041E-001	-2.94828E-001	1.08198E-005	-1.02109E-005	2.10307E-005	-3.21000E-001	3.41039E-004	7	..........a	-327.68
	28	0.058	-2.83583E-001	-3.02007E-001	-2.92795E-001	1.08263E-005	-1.02099E-005	2.10362E-005	-3.19000E-001	3.49373E-004	7	..........a	-327.68
	29	0.06	-2.81583E-001	-2.99949E-001	-2.90766E-001	1.08233E-005	-1.02028E-005	2.10260E-005	-3.17000E-001	3.32706E-004	7	..........a	-327.68
	30	0.062	-2.79549E-001	-2.98016E-001	-2.88783E-001	1.08199E-005	-1.01969E-005	2.10169E-005	-3.15000E-001	3.24373E-004	7	..........a	-327.68
	31	0.064	-2.77633E-001	-2.96016E-001	-2.86824E-001	1.08283E-005	-1.01889E-005	2.10172E-005	-3.13000E-001	3.49373E-004	7	..........a	-327.68
	32	0.066	-2.75574E-001	-2.94041E-001	-2.84808E-001	1.08229E-005	-1.01853E-005	2.10082E-005	-3.11000E-001	3.07706E-004	7	..........a	-327.68
	33	0.068	-2.73607E-001	-2.92016E-001	-2.82812E-001	1.08306E-005	-1.01901E-005	2.10207E-005	-3.09000E-001	3.66039E-004	7	..........a	-327.68
	34	0.07	-2.71591E-001	-2.89966E-001	-2.80778E-001	1.08324E-005	-1.01751E-005	2.10075E-005	-3.07000E-001	3.24373E-004	7	..........a	-327.68
	35	0.072	-2.69541E-001	-2.87999E-001	-2.78770E-001	1.08281E-005	-1.01693E-005	2.09974E-005	-3.05000E-001	3.41039E-004	7	..........a	-327.68
	36	0.074	-2.67599E-001	-2.86016E-001	-2.76808E-001	1.08306E-005	-1.01706E-005	2.10012E-005	-3.03000E-001	3.41039E-004	7	..........a	-327.68
	37	0.076	-2.65524E-001	-2.83899E-001	-2.74712E-001	1.08404E-005	-1.01586E-005	2.09990E-005	-3.01000E-001	3.41039E-004	7	..........a	-327.68
	38	0.078	-2.63633E-001	-2.81966E-001	-2.72799E-001	1.08323E-005	-1.01576E-005	2.09899E-005	-2.99000E-001	2.99373E-004	7	..........a	-327.68
	39	0.08	-2.61574E-001	-2.79907E-001	-2.70741E-001	1.08421E-005	-1.01508E-005	2.09929E-005	-2.97000E-001	3.66039E-004	7	..........a	-327.68
	40	0.082	-2.59591E-001	-2.77957E-001	-2.68774E-001	1.08378E-005	-1.01428E-005	2.09805E-005	-2.95000E-001	3.41039E-004	7	..........a	-327.68
	41	0.084	-2.57608E-001	-2.75982E-001	-2.66795E-001	1.08428E-005	-1.01368E-005	2.09795E-005	-2.93000E-001	3.24373E-004	7	..........a	-327.68
	42	0.086	-2.55583E-001	-2.74033E-001	-2.64808E-001	1.08454E-005	-1.01284E-005	2.09739E-005	-2.91000E-001	3.82706E-004	7	..........a	-327.68
	43	0.088	-2.53574E-001	-2.72007E-001	-2.62791E-001	1.08459E-005	-1.01289E-005	2.09749E-005	-2.89000E-001	3.99373E-004	7	..........a	-327.68
	44	0.09	-2.51574E-001	-2.69941E-001	-2.60758E-001	1.08486E-005	-1.01204E-005	2.09690E-005	-2.87000E-001	3.16039E-004	7	..........a	-327.68
	45	0.092	-2.49641E-001	-2.67983E-001	-2.58812E-001	1.08471E-005	-1.01083E-005	2.09554E-005	-2.85000E-001	4.16039E-004	7	..........a	-327.68
	46	0.094	-2.47591E-001	-2.65999E-001	-2.56795E-001	1.08539E-005	-1.01069E-005	2.09609E-005	-2.83000E-001	3.32706E-004	7	..........a	-327.68
	47	0.096	-2.45624E-001	-2.63874E-001	-2.54749E-001	1.08546E-005	-1.00976E-005	2.09522E-005	-2.81000E-001	3.16039E-004	7	..........a	-327.68
	48	0.098	-2.43508E-001	-2.61891E-001	-2.52699E-001	1.08558E-005	-1.00886E-005	2.09444E-005	-2.79000E-001	3.66039E-004	7	..........a	-327.68
	49	0.1	-2.41591E-001	-2.59991E-001	-2.50791E-001	1.08591E-005	-1.00826E-005	2.09417E-005	-2.77000E-001	3.49373E-004	7	..........a	-327.68
	50	0.102	-2.39658E-001	-2.57982E-001	-2.48820E-001	1.08583E-005	-1.00754E-005	2.09337E-005	-2.75000E-001	3.49373E-004	7	..........a	-327.68
	51	0.104	-2.37591E-001	-2.56016E-001	-2.46803E-001	1.08606E-005	-1.00748E-005	2.09354E-005	-2.73000E-001	3.16039E-004	7	..........a	-327.68
	52	0.106	-2.35558E-001	-2.54008E-001	-2.44783E-001	1.08596E-005	-1.00646E-005	2.09242E-005	-2.71000E-001	3.07706E-004	7	..........a	-327.68
	53	0.108	-2.33541E-001	-2.51983E-001	-2.42762E-001	1.08653E-005	-1.00603E-005	2.09255E-005	-2.69000E-001	3.57706E-004	7	..........a	-327.68
	54	0.11	-2.31499E-001	-2.49966E-001	-2.40733E-001	1.08588E-005	-1.00564E-005	2.09152E-005	-2.67000E-001	3.16039E-004	7	..........a	-327.68
	55	0.112	-2.29574E-001	-2.47983E-001	-2.38778E-001	1.08648E-005	-1.00527E-005	2.09175E-005	-2.65000E-001	3.66039E-004	7	..........a	-327.68
	56	0.114	-2.27541E-001	-2.45999E-001	-2.36770E-001	1.08639E-005	-1.00447E-005	2.09087E-005	-2.63000E-001	3.32706E-004	7	..........a	-327.68
	57	0.116	-2.25574E-001	-2.43991E-001	-2.34783E-001	1.08594E-005	-1.00449E-005	2.09044E-005	-2.61000E-001	3.57706E-004	7	..........a	-327.68
	58	0.118	-2.23574E-001	-2.41999E-001	-2.32787E-001	1.08583E-005	-1.00409E-005	2.08992E-005	-2.59000E-001	3.16039E-004	7	..........a	-327.68
	59	0.12	-2.21574E-001	-2.40033E-001	-2.30803E-001	1.08559E-005	-1.00314E-005	2.08873E-005	-2.57000E-001	3.41039E-004	7	..........a	-327.68
	60	0.122	-2.19533E-001	-2.38033E-001	-2.28783E-001	1.08634E-005	-1.00299E-005	2.08933E-005	-2.55000E-001	3.41039E-004	7	..........a	-327.68
	61	0.124	-2.17574E-001	-2.36074E-001	-2.26824E-001	1.08538E-005	-1.00292E-005	2.08830E-005	-2.53000E-001	3.16039E-004	7	..........a	-327.68
	62	0.126	-2.15524E-001	-2.34083E-001	-2.24803E-001	1.08541E-005	-1.00287E-005	2.08828E-005	-2.51000E-001	3.49373E-004	7	..........a	-327.68
	63	0.128	-2.13499E-001	-2.31966E-001	-2.22733E-001	1.08504E-005	-1.00304E-005	2.08808E-005	-2.49000E-001	3.41039E-004	7	..........a	-327.68
	64	0.13	-2.11391E-001	-2.30024E-001	-2.20708E-001	1.08471E-005	-1.00252E-005	2.08723E-005	-2.47000E-001	3.32706E-004	7	..........a	-327.68
	65	0.132	-2.09449E-001	-2.28041E-001	-2.18745E-001	1.08411E-005	-1.00329E-005	2.08740E-005	-2.45000E-001	3.57706E-004	7	..........a	-327.68
	66	0.134	-2.07558E-001	-2.26049E-001	-2.16803E-001	1.08386E-005	-1.00219E-005	2.08605E-005	-2.43000E-001	3.41039E-004	7	..........a	-327.68
	67	0.136	-2.05491E-001	-2.24124E-001	-2.14808E-001	1.08359E-005	-1.00214E-005	2.08573E-005	-2.41000E-001	3.49373E-004	7	..........a	-327.68
	68	0.138	-2.03424E-001	-2.22174E-001	-2.12799E-001	1.08326E-005	-1.00197E-005	2.08523E-005	-2.39000E-001	3.74373E-004	7	..........a	-327.68
	69	0.14	-2.01424E-001	-2.20149E-001	-2.10787E-001	1.08314E-005	-1.00284E-005	2.08598E-005	-2.37000E-001	3.32706E-004	7	..........a	-327.68
	70	0.142	-1.99424E-001	-2.18174E-001	-2.08799E-001	1.08241E-005	-1.00272E-005	2.08513E-005	-2.35000E-001	3.16039E-004	7	..........a	-327.68
	71	0.144	-1.97474E-001	-2.16224E-001	-2.06849E-001	1.08238E-005	-1.00299E-005	2.08537E-005	-2.33000E-001	3.49373E-004	7	..........a	-327.68
	72	0.146	-1.95441E-001	-2.14183E-001	-2.04812E-001	1.08144E-005	-1.00336E-005	2.08480E-005	-2.31000E-001	2.99373E-004	7	..........a	-327.68
	73	0.148	-1.93408E-001	-2.12241E-001	-2.02824E-001	1.08156E-005	-1.00297E-005	2.08453E-005	-2.29000E-001	3.32706E-004	7	..........a	-327.68
	74	0.15	-1.91433E-001	-2.10116E-001	-2.00774E-001	1.08128E-005	-1.00322E-005	2.08450E-005	-2.27000E-001	3.24373E-004	7	..........a	-327.68
	75	0.152	-1.89383E-001	-2.08158E-001	-1.98770E-001	1.08069E-005	-1.00302E-005	2.08372E-005	-2.25000E-001	3.82706E-004	7	..........a	-327.68
	76	0.154	-1.87324E-001	-2.06191E-001	-1.96758E-001	1.08016E-005	-1.00379E-005	2.08395E-005	-2.23000E-001	3.41039E-004	7	..........a	-327.68
	77	0.156	-1.85424E-001	-2.04208E-001	-1.94816E-001	1.08018E-005	-1.00341E-005	2.08358E-005	-2.21000E-001	3.32706E-004	7	..........a	-327.68
	78	0.158	-1.83374E-001	-2.02208E-001	-1.92791E-001	1.07981E-005	-1.00336E-005	2.08317E-005	-2.19000E-001	3.57706E-004	7	..........a	-327.68
	79	0.16	-1.81341E-001	-2.00291E-001	-1.90816E-001	1.07926E-005	-1.00334E-005	2.08260E-005	-2.17000E-001	3.49373E-004	7	..........a	-327.68
	80	0.162	-1.79324E-001	-1.98274E-001	-1.88799E-001	1.07979E-005	-1.00386E-005	2.08365E-005	-2.15000E-001	3.57706E-004	7	..........a	-327.68
	81	0.164	-1.77374E-001	-1.96333E-001	-1.86853E-001	1.07828E-005	-1.00391E-005	2.08218E-005	-2.13000E-001	3.66039E-004	7	..........a	-327.68
	82	0.166	-1.75358E-001	-1.94266E-001	-1.84812E-001	1.07863E-005	-1.00451E-005	2.08313E-005	-2.11000E-001	3.49373E-004	7	..........a	-327.68
	83	0.168	-1.73308E-001	-1.92349E-001	-1.82828E-001	1.07764E-005	-1.00419E-005	2.08183E-005	-2.09000E-001	3.49373E-004	7	..........a	-327.68
	84	0.17	-1.71291E-001	-1.90249E-001	-1.80770E-001	1.07814E-005	-1.00421E-005	2.08235E-005	-2.07000E-001	3.07706E-004	7	..........a	-327.68
	85	0.172	-1.69274E-001	-1.88283E-001	-1.78778E-001	1.07813E-005	-1.00409E-005	2.08222E-005	-2.05000E-001	3.49373E-004	7	..........a	-327.68
	86	0.174	-1.67258E-001	-1.86333E-001	-1.76795E-001	1.07746E-005	-1.00442E-005	2.08188E-005	-2.03000E-001	3.99373E-004	7	..........a	-327.68
	87	0.176	-1.65308E-001	-1.84308E-001	-1.74808E-001	1.07733E-005	-1.00472E-005	2.08205E-005	-2.01000E-001	3.49373E-004	7	..........a	-327.68
	88	0.178	-1.63241E-001	-1.82249E-001	-1.72745E-001	1.07693E-005	-1.00449E-005	2.08142E-005	-1.99000E-001	3.74373E-004	7	..........a	-327.68
	89	0.18	-1.61224E-001	-1.80299E-001	-1.70762E-001	1.07693E-005	-1.00487E-005	2.08180E-005	-1.97000E-001	3.24373E-004	7	..........a	-327.68
	90	0.182	-1.59283E-001	-1.78383E-001	-1.68833E-001	1.07636E-005	-1.00507E-005	2.08143E-005	-1.95000E-001	3.24373E-004	7	..........a	-327.68
	91	0.184	-1.57374E-001	-1.76374E-001	-1.66874E-001	1.07654E-005	-1.00422E-005	2.08077E-005	-1.93000E-001	3.99373E-004	7	..........a	-327.68
	92	0.186	-1.55258E-001	-1.74308E-001	-1.64783E-001	1.07649E-005	-1.00486E-005	2.08135E-005	-1.91000E-001	2.91039E-004	7	..........a	-327.68
	93	0.188	-1.53208E-001	-1.72399E-001	-1.62803E-001	1.07676E-005	-1.00471E-005	2.08147E-005	-1.89000E-001	3.99373E-004	7	..........a	-327.68
	94	0.19	-1.51224E-001	-1.70324E-001	-1.60774E-001	1.07554E-005	-1.00479E-005	2.08033E-005	-1.87000E-001	3.57706E-004	7	..........a	-327.68
	95	0.192	-1.49291E-001	-1.68408E-001	-1.58849E-001	1.07594E-005	-1.00501E-005	2.08095E-005	-1.85000E-001	3.49373E-004	7	..........a	-327.68
	96	0.194	-1.47241E-001	-1.66366E-001	-1.56803E-001	1.07586E-005	-1.00481E-005	2.08067E-005	-1.83000E-001	3.49373E-004	7	..........a	-327.68
	97	0.196	-1.45208E-001	-1.64324E-001	-1.54766E-001	1.07484E-005	-1.00504E-005	2.07988E-005	-1.81000E-001	3.49373E-004	7	..........a	-327.68
	98	0.198	-1.43174E-001	-1.62316E-001	-1.52745E-001	1.07571E-005	-1.00479E-005	2.08050E-005	-1.79000E-001	3.57706E-004	7	..........a	-327.68
	99	0.2	-1.41283E-001	-1.60374E-001	-1.50828E-001	1.07559E-005	-1.00459E-005	2.08018E-005	-1.77000E-001	4.24373E-004	7	..........a	-327.68
	100	0.202	-1.39249E-001	-1.58366E-001	-1.48808E-001	1.07523E-005	-1.00457E-005	2.07980E-005	-1.75000E-001	3.49373E-004	7	..........a	-327.68
