EXPLAIN
TAG	SQUARE_WAVE
TITLE	LABEL	Square Wave Voltammetry	Test Identifier
DATE	LABEL	8/25/2020	Date
TIME	LABEL	14:39:28	Time
NOTES	NOTES	1	Notes...
	
PSTAT	PSTAT	REF600-24079	Potentiostat
VINIT	QUANT	-3.50000E-001	Initial E (V)
VFINAL	QUANT	-1.50000E-001	Final E (V)
STEPSIZE	QUANT	2.00000E+000	Step Size (mV)
TIMERRES	QUANT	3.33340E-005	&Timer Resolution
FREQUENCY	QUANT	1.00000E+001	Frequency (Hz)
PULSESIZE	QUANT	2.50000E+001	Pulse Size E (mV)
PULSEON	QUANT	1.00000E-001	Pulse &Time (s)
NOISEREJECT	TOGGLE	F	Noise Rejection
AREA	QUANT	2.00000E-002	Sample Area (cm^2)
IMODE	SELECTOR	1	I/E Range Mode
IRANGE	QUANT	1.00000E-003	Max Current (mA)
EQDELAY	IQUANT	10	Equil. Time (s)
IRCOMP	SELECTOR	0	IRComp
PFCOR	QUANT	5.00000E+001	PF Corr. (ohm)
CYCLES	IQUANT	101	C&ycles (#)
ELECTRODETYPE	SELECTOR	0	Electrode Type
STRIPPING	TOGGLE	F	Used for Stripping
POLARITY	TOGGLE	F	Signal Polarity
LINEFREQ	IQUANT	60	Line Frequency (Hz)
INTPERIOD	QUANT	3.3334E-005	Integration Period (s)
SEQUENCER	TOGGLE	TRUE	Run as Sequence
PSTATMODEL	IQUANT	4	Pstat Model
PSTATSECTION	LABEL	REF600-24079	Pstat Section
PSTATSERIALNO	LABEL	24079	Pstat Serial Number
CTRLMODE	IQUANT	1	Control Mode
ELECTROMETER	IQUANT	0	RE=0 or CS=1
IESTAB	IQUANT	2	I/E Stability
CASPEED	IQUANT	6	Control Amp Speed
CONVENTION	IQUANT	1	Current Convention
ICHRANGE	IQUANT	2	Ich Range
ICHRANGEMODE	TOGGLE	F	Ich Auto Range
ICHOFFSETENABLE	TOGGLE	F	Ich Offset Enable
ICHOFFSET	QUANT	0	Ich Offset (V)
ICHFILTER	IQUANT	2	Ich Filter
VCHRANGE	IQUANT	2	Vch Range
VCHRANGEMODE	TOGGLE	F	Vch Auto Range
VCHOFFSETENABLE	TOGGLE	F	Vch Offset Enable
VCHOFFSET	QUANT	0	Vch Offset (V)
VCHFILTER	IQUANT	2	Vch Filter
ACHRANGE	IQUANT	2	Ach Range
ACHOFFSETENABLE	TOGGLE	F	Ach Offset Enable
ACHOFFSET	QUANT	0	Ach Offset (V)
ACHFILTER	IQUANT	1	Ach Filter
IERANGELOWERLIMIT	IQUANT	1	I/E Range Lower Limit
IERANGEMODE	TOGGLE	F	I/E AutoRange
IERANGE	IQUANT	6	I/E Range
POSFEEDENABLE	TOGGLE	F	Positive Feedback IR Comp
POSFEEDRESISTANCE	QUANT	0	Positive Feedback Resistance (ohm)
ACHSELECT	IQUANT	0	Ach Select
SENSECABLEID	IQUANT	13	Sense Cable ID
PWRCABLEID	IQUANT	13	Power Cable ID
DCCALDATE	LABEL	6/30/2020	DC Calibration Date
ACCALDATE	LABEL	6/30/2020	AC Calibration Date
THERMOSELECT	IQUANT	1	Thermo Select
FRAMEWORKVERSION	LABEL	7.8.2	Framework Version
INSTRUMENTVERSION	LABEL	4.40	Instrument Version
CURVE	TABLE	101
	Pt	T	Vfwd	Vrev	Vstep	Ifwd	Irev	Idif	Sig	Ach	IERange	Over	Temp
	#	s	V	V	V	A	A	A	V	V	#	bits	deg C
	0	0.1	-3.25073E-001	-3.75023E-001	-3.50048E-001	-9.88034E-009	-3.90120E-008	2.91317E-008	-3.75000E-001	4.32706E-004	6	..........a	-327.68
	1	0.2	-3.22996E-001	-3.73070E-001	-3.48033E-001	1.26474E-009	-3.43718E-008	3.56365E-008	-3.73000E-001	4.23206E-004	6	..........a	-327.68
	2	0.3	-3.21090E-001	-3.70988E-001	-3.46039E-001	3.54670E-009	-3.27172E-008	3.62639E-008	-3.71000E-001	4.25039E-004	6	..........a	-327.68
	3	0.4	-3.19089E-001	-3.69122E-001	-3.44106E-001	4.72518E-009	-3.14347E-008	3.61599E-008	-3.69000E-001	4.31039E-004	6	..........a	-327.68
	4	0.5	-3.17121E-001	-3.67061E-001	-3.42091E-001	5.83433E-009	-3.05223E-008	3.63566E-008	-3.67000E-001	4.28373E-004	6	..........a	-327.68
	5	0.6	-3.14989E-001	-3.65077E-001	-3.40033E-001	6.32372E-009	-2.99052E-008	3.62289E-008	-3.65000E-001	4.29873E-004	6	..........a	-327.68
	6	0.7	-3.13118E-001	-3.62959E-001	-3.38038E-001	6.78678E-009	-2.93485E-008	3.61353E-008	-3.63000E-001	4.25039E-004	6	..........a	-327.68
	7	0.8	-3.11042E-001	-3.61101E-001	-3.36071E-001	7.46653E-009	-2.91511E-008	3.66177E-008	-3.61000E-001	4.23873E-004	6	..........a	-327.68
	8	0.9	-3.09112E-001	-3.59025E-001	-3.34068E-001	8.23730E-009	-2.84127E-008	3.66500E-008	-3.59000E-001	4.26706E-004	6	..........a	-327.68
	9	1	-3.06963E-001	-3.57098E-001	-3.32031E-001	8.76837E-009	-2.81437E-008	3.69120E-008	-3.57000E-001	4.26873E-004	6	..........a	-327.68
	10	1.1	-3.05121E-001	-3.54977E-001	-3.30049E-001	9.23476E-009	-2.78950E-008	3.71297E-008	-3.55000E-001	4.29039E-004	6	..........a	-327.68
	11	1.2	-3.03069E-001	-3.53091E-001	-3.28080E-001	9.83217E-009	-2.76216E-008	3.74538E-008	-3.53000E-001	4.24373E-004	6	..........a	-327.68
	12	1.3	-3.01115E-001	-3.51000E-001	-3.26057E-001	1.02619E-008	-2.71515E-008	3.74134E-008	-3.51000E-001	4.20706E-004	6	..........a	-327.68
	13	1.4	-2.98989E-001	-3.49070E-001	-3.24030E-001	1.10100E-008	-2.69902E-008	3.80002E-008	-3.49000E-001	4.19873E-004	6	..........a	-327.68
	14	1.5	-2.97112E-001	-3.47002E-001	-3.22057E-001	1.15497E-008	-2.68592E-008	3.84089E-008	-3.47000E-001	4.23539E-004	6	..........a	-327.68
	15	1.6	-2.95043E-001	-3.45122E-001	-3.20083E-001	1.21968E-008	-2.67072E-008	3.89040E-008	-3.45000E-001	4.32206E-004	6	..........a	-327.68
	16	1.7	-2.93040E-001	-3.43025E-001	-3.18032E-001	1.27515E-008	-2.67268E-008	3.94784E-008	-3.43000E-001	4.30373E-004	6	..........a	-327.68
	17	1.8	-2.90950E-001	-3.41073E-001	-3.16011E-001	1.34770E-008	-2.66185E-008	4.00954E-008	-3.41000E-001	4.31539E-004	6	..........a	-327.68
	18	1.9	-2.89124E-001	-3.38977E-001	-3.14050E-001	1.43044E-008	-2.64131E-008	4.07175E-008	-3.39000E-001	4.27873E-004	6	..........a	-327.68
	19	2	-2.87058E-001	-3.37100E-001	-3.12079E-001	1.50178E-008	-2.64501E-008	4.14679E-008	-3.37000E-001	4.32706E-004	6	..........a	-327.68
	20	2.1	-2.85097E-001	-3.35033E-001	-3.10065E-001	1.59319E-008	-2.66658E-008	4.25978E-008	-3.35000E-001	4.29373E-004	6	..........a	-327.68
	21	2.2	-2.82961E-001	-3.33090E-001	-3.08026E-001	1.67747E-008	-2.66861E-008	4.34609E-008	-3.33000E-001	4.21039E-004	6	..........a	-327.68
	22	2.3	-2.81111E-001	-3.30963E-001	-3.06037E-001	1.77158E-008	-2.69655E-008	4.46814E-008	-3.31000E-001	4.29539E-004	6	..........a	-327.68
	23	2.4	-2.79054E-001	-3.29104E-001	-3.04079E-001	1.85909E-008	-2.72449E-008	4.58358E-008	-3.29000E-001	4.32206E-004	6	..........a	-327.68
	24	2.5	-2.77108E-001	-3.27021E-001	-3.02064E-001	1.93784E-008	-2.74459E-008	4.68243E-008	-3.27000E-001	4.33373E-004	6	..........a	-327.68
	25	2.6	-2.74996E-001	-3.25078E-001	-3.00037E-001	2.05332E-008	-2.77386E-008	4.82718E-008	-3.25000E-001	4.35539E-004	6	..........a	-327.68
	26	2.7	-2.73098E-001	-3.22987E-001	-2.98042E-001	2.15977E-008	-2.80650E-008	4.96627E-008	-3.23000E-001	4.29206E-004	6	..........a	-327.68
	27	2.8	-2.71040E-001	-3.21040E-001	-2.96040E-001	2.26825E-008	-2.85404E-008	5.12228E-008	-3.21000E-001	4.23206E-004	6	..........a	-327.68
	28	2.9	-2.69076E-001	-3.19068E-001	-2.94072E-001	2.39143E-008	-2.92495E-008	5.31638E-008	-3.19000E-001	4.26039E-004	6	..........a	-327.68
	29	3	-2.66943E-001	-3.17115E-001	-2.92029E-001	2.49598E-008	-2.97795E-008	5.47393E-008	-3.17000E-001	4.28373E-004	6	..........a	-327.68
	30	3.1	-2.65121E-001	-3.14985E-001	-2.90053E-001	2.60269E-008	-3.05303E-008	5.65572E-008	-3.15000E-001	4.24539E-004	6	..........a	-327.68
	31	3.2	-2.63029E-001	-3.13097E-001	-2.88063E-001	2.71170E-008	-3.11207E-008	5.82377E-008	-3.13000E-001	4.23873E-004	6	..........a	-327.68
	32	3.3	-2.61108E-001	-3.11039E-001	-2.86074E-001	2.82708E-008	-3.19942E-008	6.02650E-008	-3.11000E-001	4.29206E-004	6	..........a	-327.68
	33	3.4	-2.58984E-001	-3.09093E-001	-2.84039E-001	2.93226E-008	-3.26619E-008	6.19846E-008	-3.09000E-001	4.28706E-004	6	..........a	-327.68
	34	3.5	-2.57102E-001	-3.06973E-001	-2.82037E-001	3.01498E-008	-3.35790E-008	6.37288E-008	-3.07000E-001	4.25706E-004	6	..........a	-327.68
	35	3.6	-2.55060E-001	-3.05111E-001	-2.80086E-001	3.11732E-008	-3.43971E-008	6.55703E-008	-3.05000E-001	4.28873E-004	6	..........a	-327.68
	36	3.7	-2.53115E-001	-3.03059E-001	-2.78087E-001	3.18676E-008	-3.50602E-008	6.69278E-008	-3.03000E-001	4.25539E-004	6	..........a	-327.68
	37	3.8	-2.50985E-001	-3.01105E-001	-2.76045E-001	3.26167E-008	-3.57393E-008	6.83560E-008	-3.01000E-001	4.24373E-004	6	..........a	-327.68
	38	3.9	-2.49105E-001	-2.98999E-001	-2.74052E-001	3.30065E-008	-3.66224E-008	6.96289E-008	-2.99000E-001	4.32039E-004	6	..........a	-327.68
	39	4	-2.47015E-001	-2.97093E-001	-2.72054E-001	3.35175E-008	-3.76379E-008	7.11554E-008	-2.97000E-001	4.23706E-004	6	..........a	-327.68
	40	4.1	-2.45063E-001	-2.95020E-001	-2.70041E-001	3.38306E-008	-3.83573E-008	7.21878E-008	-2.95000E-001	4.26539E-004	6	..........a	-327.68
	41	4.2	-2.42993E-001	-2.93027E-001	-2.68010E-001	3.39789E-008	-3.90057E-008	7.29846E-008	-2.93000E-001	4.25539E-004	6	..........a	-327.68
	42	4.3	-2.41125E-001	-2.90942E-001	-2.66033E-001	3.40716E-008	-3.95064E-008	7.35780E-008	-2.91000E-001	4.23039E-004	6	..........a	-327.68
	43	4.4	-2.39027E-001	-2.89118E-001	-2.64073E-001	3.39449E-008	-4.03202E-008	7.42651E-008	-2.89000E-001	4.30539E-004	6	..........a	-327.68
	44	4.5	-2.37082E-001	-2.87005E-001	-2.62043E-001	3.39092E-008	-4.03896E-008	7.42988E-008	-2.87000E-001	4.19039E-004	6	..........a	-327.68
	45	4.6	-2.34952E-001	-2.85091E-001	-2.60021E-001	3.36419E-008	-4.06929E-008	7.43348E-008	-2.85000E-001	4.29373E-004	6	..........a	-327.68
	46	4.7	-2.33107E-001	-2.82964E-001	-2.58035E-001	3.33395E-008	-4.06686E-008	7.40081E-008	-2.83000E-001	4.24373E-004	6	..........a	-327.68
	47	4.8	-2.31041E-001	-2.81120E-001	-2.56081E-001	3.29594E-008	-4.08679E-008	7.38274E-008	-2.81000E-001	4.25706E-004	6	..........a	-327.68
	48	4.9	-2.29115E-001	-2.79038E-001	-2.54077E-001	3.25837E-008	-4.08643E-008	7.34480E-008	-2.79000E-001	4.24706E-004	6	..........a	-327.68
	49	5	-2.26967E-001	-2.77093E-001	-2.52030E-001	3.18536E-008	-4.05229E-008	7.23765E-008	-2.77000E-001	4.31206E-004	6	..........a	-327.68
	50	5.1	-2.25106E-001	-2.74973E-001	-2.50040E-001	3.13956E-008	-4.01785E-008	7.15741E-008	-2.75000E-001	4.24373E-004	6	..........a	-327.68
	51	5.2	-2.23009E-001	-2.73084E-001	-2.48046E-001	3.09165E-008	-3.95765E-008	7.04930E-008	-2.73000E-001	4.28206E-004	6	..........a	-327.68
	52	5.3	-2.21088E-001	-2.71030E-001	-2.46059E-001	3.00707E-008	-3.90471E-008	6.91178E-008	-2.71000E-001	4.24039E-004	6	..........a	-327.68
	53	5.4	-2.19009E-001	-2.69069E-001	-2.44039E-001	2.94897E-008	-3.82386E-008	6.77283E-008	-2.69000E-001	4.24039E-004	6	..........a	-327.68
	54	5.5	-2.17122E-001	-2.66939E-001	-2.42031E-001	2.88149E-008	-3.75539E-008	6.63688E-008	-2.67000E-001	4.25206E-004	6	..........a	-327.68
	55	5.6	-2.15047E-001	-2.65116E-001	-2.40081E-001	2.81342E-008	-3.64150E-008	6.45492E-008	-2.65000E-001	4.25373E-004	6	..........a	-327.68
	56	5.7	-2.13097E-001	-2.63021E-001	-2.38059E-001	2.74107E-008	-3.54856E-008	6.28963E-008	-2.63000E-001	4.19539E-004	6	..........a	-327.68
	57	5.8	-2.10979E-001	-2.61103E-001	-2.36041E-001	2.67033E-008	-3.42114E-008	6.09148E-008	-2.61000E-001	4.21873E-004	6	..........a	-327.68
	58	5.9	-2.09106E-001	-2.58965E-001	-2.34036E-001	2.60869E-008	-3.34093E-008	5.94962E-008	-2.59000E-001	4.20206E-004	6	..........a	-327.68
	59	6	-2.07028E-001	-2.57093E-001	-2.32060E-001	2.54175E-008	-3.22889E-008	5.77063E-008	-2.57000E-001	4.23373E-004	6	..........a	-327.68
	60	6.1	-2.05105E-001	-2.55044E-001	-2.30074E-001	2.50944E-008	-3.09144E-008	5.60088E-008	-2.55000E-001	4.27206E-004	6	..........a	-327.68
	61	6.2	-2.02973E-001	-2.53102E-001	-2.28037E-001	2.43960E-008	-2.97935E-008	5.41896E-008	-2.53000E-001	4.34206E-004	6	..........a	-327.68
	62	6.3	-2.01112E-001	-2.50982E-001	-2.26047E-001	2.38890E-008	-2.85821E-008	5.24710E-008	-2.51000E-001	4.29539E-004	6	..........a	-327.68
	63	6.4	-1.99053E-001	-2.49069E-001	-2.24061E-001	2.34746E-008	-2.74149E-008	5.08895E-008	-2.49000E-001	4.31039E-004	6	..........a	-327.68
	64	6.5	-1.97101E-001	-2.47004E-001	-2.22052E-001	2.30822E-008	-2.65298E-008	4.96120E-008	-2.47000E-001	4.22873E-004	6	..........a	-327.68
	65	6.6	-1.95007E-001	-2.45032E-001	-2.20019E-001	2.26068E-008	-2.52426E-008	4.78494E-008	-2.45000E-001	4.21039E-004	6	..........a	-327.68
	66	6.7	-1.93085E-001	-2.42973E-001	-2.18029E-001	2.21997E-008	-2.42585E-008	4.64582E-008	-2.43000E-001	4.31373E-004	6	..........a	-327.68
	67	6.8	-1.91082E-001	-2.41122E-001	-2.16102E-001	2.18697E-008	-2.33917E-008	4.52614E-008	-2.41000E-001	4.29539E-004	6	..........a	-327.68
	68	6.9	-1.89120E-001	-2.39037E-001	-2.14079E-001	2.16213E-008	-2.24316E-008	4.40529E-008	-2.39000E-001	4.36206E-004	6	..........a	-327.68
	69	7	-1.86980E-001	-2.37063E-001	-2.12021E-001	2.10816E-008	-2.14771E-008	4.25587E-008	-2.37000E-001	4.33039E-004	6	..........a	-327.68
	70	7.1	-1.85110E-001	-2.34960E-001	-2.10035E-001	2.09686E-008	-2.07404E-008	4.17090E-008	-2.35000E-001	4.26873E-004	6	..........a	-327.68
	71	7.2	-1.83059E-001	-2.33099E-001	-2.08079E-001	2.06365E-008	-1.98316E-008	4.04682E-008	-2.33000E-001	4.29873E-004	6	..........a	-327.68
	72	7.3	-1.81112E-001	-2.31027E-001	-2.06069E-001	2.03968E-008	-1.92082E-008	3.96050E-008	-2.31000E-001	4.30206E-004	6	..........a	-327.68
	73	7.4	-1.78972E-001	-2.29104E-001	-2.04038E-001	2.02922E-008	-1.82627E-008	3.85549E-008	-2.29000E-001	4.41039E-004	6	..........a	-327.68
	74	7.5	-1.77097E-001	-2.26967E-001	-2.02032E-001	2.02195E-008	-1.78033E-008	3.80228E-008	-2.27000E-001	4.32873E-004	6	..........a	-327.68
	75	7.6	-1.75065E-001	-2.25092E-001	-2.00078E-001	1.99258E-008	-1.72816E-008	3.72074E-008	-2.25000E-001	4.28206E-004	6	..........a	-327.68
	76	7.7	-1.73109E-001	-2.22995E-001	-1.98052E-001	1.98258E-008	-1.66315E-008	3.64573E-008	-2.23000E-001	4.29873E-004	6	..........a	-327.68
	77	7.8	-1.70985E-001	-2.21056E-001	-1.96021E-001	1.96094E-008	-1.61405E-008	3.57499E-008	-2.21000E-001	4.26706E-004	6	..........a	-327.68
	78	7.9	-1.69096E-001	-2.18981E-001	-1.94038E-001	1.97104E-008	-1.56677E-008	3.53782E-008	-2.19000E-001	4.30039E-004	6	..........a	-327.68
	79	8	-1.67024E-001	-2.17128E-001	-1.92076E-001	1.94847E-008	-1.53907E-008	3.48754E-008	-2.17000E-001	4.27206E-004	6	..........a	-327.68
	80	8.1	-1.65083E-001	-2.15008E-001	-1.90046E-001	1.95934E-008	-1.47993E-008	3.43927E-008	-2.15000E-001	4.27539E-004	6	..........a	-327.68
	81	8.2	-1.62952E-001	-2.13055E-001	-1.88004E-001	1.94304E-008	-1.46059E-008	3.40363E-008	-2.13000E-001	4.35706E-004	6	..........a	-327.68
	82	8.3	-1.61106E-001	-2.10956E-001	-1.86031E-001	1.94777E-008	-1.40955E-008	3.35733E-008	-2.11000E-001	4.30039E-004	6	..........a	-327.68
	83	8.4	-1.59034E-001	-2.09100E-001	-1.84067E-001	1.93700E-008	-1.39192E-008	3.32892E-008	-2.09000E-001	4.25373E-004	6	..........a	-327.68
	84	8.5	-1.57106E-001	-2.07027E-001	-1.82067E-001	1.95224E-008	-1.37022E-008	3.32246E-008	-2.07000E-001	4.30039E-004	6	..........a	-327.68
	85	8.6	-1.54968E-001	-2.05087E-001	-1.80028E-001	1.93881E-008	-1.32921E-008	3.26802E-008	-2.05000E-001	4.30039E-004	6	..........a	-327.68
	86	8.7	-1.53128E-001	-2.02957E-001	-1.78043E-001	1.95877E-008	-1.31548E-008	3.27425E-008	-2.03000E-001	4.23039E-004	6	..........a	-327.68
	87	8.8	-1.51049E-001	-2.01106E-001	-1.76077E-001	1.94841E-008	-1.28461E-008	3.23301E-008	-2.01000E-001	4.27039E-004	6	..........a	-327.68
	88	8.9	-1.49104E-001	-1.99037E-001	-1.74071E-001	1.95211E-008	-1.25860E-008	3.21071E-008	-1.99000E-001	4.24206E-004	6	..........a	-327.68
	89	9	-1.46994E-001	-1.97073E-001	-1.72034E-001	1.95464E-008	-1.25000E-008	3.20464E-008	-1.97000E-001	4.22539E-004	6	..........a	-327.68
	90	9.1	-1.45102E-001	-1.94980E-001	-1.70041E-001	1.94941E-008	-1.21220E-008	3.16160E-008	-1.95000E-001	4.23706E-004	6	..........a	-327.68
	91	9.2	-1.43033E-001	-1.93054E-001	-1.68044E-001	1.96944E-008	-1.21610E-008	3.18554E-008	-1.93000E-001	4.25539E-004	6	..........a	-327.68
	92	9.3	-1.41087E-001	-1.91039E-001	-1.66063E-001	1.96698E-008	-1.18696E-008	3.15393E-008	-1.91000E-001	4.22873E-004	6	..........a	-327.68
	93	9.4	-1.38935E-001	-1.89095E-001	-1.64015E-001	1.97388E-008	-1.17772E-008	3.15160E-008	-1.89000E-001	4.29539E-004	6	..........a	-327.68
	94	9.5	-1.37124E-001	-1.86961E-001	-1.62042E-001	1.97611E-008	-1.15426E-008	3.13036E-008	-1.87000E-001	4.23039E-004	6	..........a	-327.68
	95	9.6	-1.35053E-001	-1.85101E-001	-1.60077E-001	1.96878E-008	-1.14799E-008	3.11676E-008	-1.85000E-001	4.28873E-004	6	..........a	-327.68
	96	9.7	-1.33104E-001	-1.83014E-001	-1.58059E-001	1.98921E-008	-1.13252E-008	3.12173E-008	-1.83000E-001	4.23373E-004	6	..........a	-327.68
	97	9.8	-1.30964E-001	-1.81090E-001	-1.56027E-001	1.98364E-008	-1.14625E-008	3.12990E-008	-1.81000E-001	4.29539E-004	6	..........a	-327.68
	98	9.9	-1.29106E-001	-1.78955E-001	-1.54030E-001	2.02345E-008	-1.10845E-008	3.13190E-008	-1.79000E-001	4.33206E-004	6	..........a	-327.68
	99	10	-1.27073E-001	-1.77110E-001	-1.52092E-001	2.00695E-008	-1.09445E-008	3.10139E-008	-1.77000E-001	4.31539E-004	6	..........a	-327.68
	100	10.1	-1.25116E-001	-1.75045E-001	-1.50080E-001	1.99165E-008	-1.08701E-008	3.07866E-008	-1.75000E-001	4.33873E-004	6	..........a	-327.68
