EXPLAIN
TAG	SQUARE_WAVE
TITLE	LABEL	Square Wave Voltammetry	Test Identifier
DATE	LABEL	8/25/2020	Date
TIME	LABEL	13:09:36	Time
NOTES	NOTES	1	Notes...
	
PSTAT	PSTAT	REF600-24079	Potentiostat
VINIT	QUANT	-3.50000E-001	Initial E (V)
VFINAL	QUANT	-1.50000E-001	Final E (V)
STEPSIZE	QUANT	2.00000E+000	Step Size (mV)
TIMERRES	QUANT	3.33340E-005	&Timer Resolution
FREQUENCY	QUANT	7.50000E+001	Frequency (Hz)
PULSESIZE	QUANT	2.50000E+001	Pulse Size E (mV)
PULSEON	QUANT	1.33333E-002	Pulse &Time (s)
NOISEREJECT	TOGGLE	F	Noise Rejection
AREA	QUANT	2.00000E-002	Sample Area (cm^2)
IMODE	SELECTOR	1	I/E Range Mode
IRANGE	QUANT	1.00000E-003	Max Current (mA)
EQDELAY	IQUANT	10	Equil. Time (s)
IRCOMP	SELECTOR	0	IRComp
PFCOR	QUANT	5.00000E+001	PF Corr. (ohm)
CYCLES	IQUANT	101	C&ycles (#)
ELECTRODETYPE	SELECTOR	0	Electrode Type
STRIPPING	TOGGLE	F	Used for Stripping
POLARITY	TOGGLE	F	Signal Polarity
LINEFREQ	IQUANT	60	Line Frequency (Hz)
INTPERIOD	QUANT	3.3334E-005	Integration Period (s)
SEQUENCER	TOGGLE	TRUE	Run as Sequence
PSTATMODEL	IQUANT	4	Pstat Model
PSTATSECTION	LABEL	REF600-24079	Pstat Section
PSTATSERIALNO	LABEL	24079	Pstat Serial Number
CTRLMODE	IQUANT	1	Control Mode
ELECTROMETER	IQUANT	0	RE=0 or CS=1
IESTAB	IQUANT	2	I/E Stability
CASPEED	IQUANT	6	Control Amp Speed
CONVENTION	IQUANT	1	Current Convention
ICHRANGE	IQUANT	2	Ich Range
ICHRANGEMODE	TOGGLE	F	Ich Auto Range
ICHOFFSETENABLE	TOGGLE	F	Ich Offset Enable
ICHOFFSET	QUANT	0	Ich Offset (V)
ICHFILTER	IQUANT	2	Ich Filter
VCHRANGE	IQUANT	2	Vch Range
VCHRANGEMODE	TOGGLE	F	Vch Auto Range
VCHOFFSETENABLE	TOGGLE	F	Vch Offset Enable
VCHOFFSET	QUANT	0	Vch Offset (V)
VCHFILTER	IQUANT	2	Vch Filter
ACHRANGE	IQUANT	2	Ach Range
ACHOFFSETENABLE	TOGGLE	F	Ach Offset Enable
ACHOFFSET	QUANT	0	Ach Offset (V)
ACHFILTER	IQUANT	1	Ach Filter
IERANGELOWERLIMIT	IQUANT	1	I/E Range Lower Limit
IERANGEMODE	TOGGLE	F	I/E AutoRange
IERANGE	IQUANT	6	I/E Range
POSFEEDENABLE	TOGGLE	F	Positive Feedback IR Comp
POSFEEDRESISTANCE	QUANT	0	Positive Feedback Resistance (ohm)
ACHSELECT	IQUANT	0	Ach Select
SENSECABLEID	IQUANT	13	Sense Cable ID
PWRCABLEID	IQUANT	13	Power Cable ID
DCCALDATE	LABEL	6/30/2020	DC Calibration Date
ACCALDATE	LABEL	6/30/2020	AC Calibration Date
THERMOSELECT	IQUANT	1	Thermo Select
FRAMEWORKVERSION	LABEL	7.8.2	Framework Version
INSTRUMENTVERSION	LABEL	4.40	Instrument Version
CURVE	TABLE	101
	Pt	T	Vfwd	Vrev	Vstep	Ifwd	Irev	Idif	Sig	Ach	IERange	Over	Temp
	#	s	V	V	V	A	A	A	V	V	#	bits	deg C
	0	0.013333	-3.25012E-001	-3.88091E-001	-3.56552E-001	1.32075E-009	-6.76630E-008	6.89838E-008	-3.75000E-001	4.47706E-004	6	..........a	-327.68
	1	0.026667	-3.07336E-001	-3.88465E-001	-3.47900E-001	-3.21808E-007	3.71043E-007	-6.92851E-007	-3.73000E-001	4.20206E-004	6	.....h....a	-327.68
	2	0.04	-3.05206E-001	-3.86438E-001	-3.45822E-001	-4.45451E-007	4.08015E-007	-8.53466E-007	-3.71000E-001	4.11456E-004	6	.....h....a	-327.68
	3	0.053333	-3.03231E-001	-3.84436E-001	-3.43833E-001	-4.42008E-007	4.12313E-007	-8.54321E-007	-3.69000E-001	4.31456E-004	6	.....h....a	-327.68
	4	0.066667	-3.01247E-001	-3.82406E-001	-3.41827E-001	-4.35122E-007	4.12201E-007	-8.47323E-007	-3.67000E-001	4.23956E-004	6	.....h....a	-327.68
	5	0.08	-2.99253E-001	-3.80441E-001	-3.39847E-001	-4.27836E-007	4.11408E-007	-8.39244E-007	-3.65000E-001	4.28956E-004	6	.....h....a	-327.68
	6	0.093333	-2.97277E-001	-3.78451E-001	-3.37864E-001	-4.20478E-007	4.10668E-007	-8.31146E-007	-3.63000E-001	4.25206E-004	6	.....h....a	-327.68
	7	0.106667	-2.95276E-001	-3.76455E-001	-3.35865E-001	-4.14155E-007	4.09100E-007	-8.23255E-007	-3.61000E-001	4.18956E-004	6	.....h....a	-327.68
	8	0.12	-2.93315E-001	-3.74438E-001	-3.33877E-001	-4.06939E-007	4.07517E-007	-8.14456E-007	-3.59000E-001	4.11456E-004	6	.....h....a	-327.68
	9	0.133333	-2.91285E-001	-3.72425E-001	-3.31855E-001	-3.97815E-007	4.02454E-007	-8.00269E-007	-3.57000E-001	4.18956E-004	6	.....h....a	-327.68
	10	0.146667	-2.89305E-001	-3.70442E-001	-3.29873E-001	-3.89736E-007	3.98216E-007	-7.87953E-007	-3.55000E-001	4.27706E-004	6	.....h....a	-327.68
	11	0.16	-2.87265E-001	-3.68452E-001	-3.27858E-001	-3.79550E-007	3.94363E-007	-7.73913E-007	-3.53000E-001	4.33956E-004	6	.....h....a	-327.68
	12	0.173333	-2.85300E-001	-3.66446E-001	-3.25873E-001	-3.71417E-007	3.89900E-007	-7.61317E-007	-3.51000E-001	4.42706E-004	6	.....h....a	-327.68
	13	0.186667	-2.83287E-001	-3.64435E-001	-3.23861E-001	-3.62145E-007	3.85060E-007	-7.47205E-007	-3.49000E-001	4.25206E-004	6	.....h....a	-327.68
	14	0.2	-2.81335E-001	-3.62442E-001	-3.21888E-001	-3.50662E-007	3.77319E-007	-7.27980E-007	-3.47000E-001	4.33956E-004	6	.....h....a	-327.68
	15	0.213333	-2.79326E-001	-3.60476E-001	-3.19901E-001	-3.38112E-007	3.70523E-007	-7.08635E-007	-3.45000E-001	4.28956E-004	6	.....h....a	-327.68
	16	0.226667	-2.77362E-001	-3.58503E-001	-3.17933E-001	-3.25571E-007	3.62819E-007	-6.88390E-007	-3.43000E-001	4.40206E-004	6	.....h....a	-327.68
	17	0.24	-2.75342E-001	-3.56506E-001	-3.15924E-001	-3.12707E-007	3.54266E-007	-6.66972E-007	-3.41000E-001	3.93956E-004	6	.....h....a	-327.68
	18	0.253333	-2.73340E-001	-3.54523E-001	-3.13932E-001	-2.99705E-007	3.45420E-007	-6.45125E-007	-3.39000E-001	4.11456E-004	6	.....h....a	-327.68
	19	0.266667	-2.71357E-001	-3.52531E-001	-3.11944E-001	-2.85076E-007	3.34681E-007	-6.19756E-007	-3.37000E-001	4.18956E-004	6	.....h....a	-327.68
	20	0.28	-2.69357E-001	-3.50530E-001	-3.09943E-001	-2.70574E-007	3.23839E-007	-5.94413E-007	-3.35000E-001	4.18956E-004	6	.....h....a	-327.68
	21	0.293333	-2.67355E-001	-3.48546E-001	-3.07950E-001	-2.54344E-007	3.13190E-007	-5.67535E-007	-3.33000E-001	4.22706E-004	6	.....h....a	-327.68
	22	0.306667	-2.65352E-001	-3.46580E-001	-3.05966E-001	-2.38000E-007	3.01581E-007	-5.39581E-007	-3.31000E-001	4.18956E-004	6	.....h....a	-327.68
	23	0.32	-2.63355E-001	-3.44540E-001	-3.03947E-001	-2.21665E-007	2.90060E-007	-5.11725E-007	-3.29000E-001	4.11456E-004	6	.....h....a	-327.68
	24	0.333333	-2.61373E-001	-3.42555E-001	-3.01964E-001	-2.03405E-007	2.76333E-007	-4.79739E-007	-3.27000E-001	4.20206E-004	6	.....h....a	-327.68
	25	0.346667	-2.59368E-001	-3.40580E-001	-2.99974E-001	-1.85808E-007	2.61904E-007	-4.47712E-007	-3.25000E-001	4.28956E-004	6	.....h....a	-327.68
	26	0.36	-2.57381E-001	-3.38581E-001	-2.97981E-001	-1.66628E-007	2.48432E-007	-4.15060E-007	-3.23000E-001	4.08956E-004	6	.....h....a	-327.68
	27	0.373333	-2.55398E-001	-3.36578E-001	-2.95988E-001	-1.49828E-007	2.35141E-007	-3.84969E-007	-3.21000E-001	4.27706E-004	6	.....h....a	-327.68
	28	0.386667	-2.53403E-001	-3.34592E-001	-2.93998E-001	-1.31769E-007	2.21469E-007	-3.53237E-007	-3.19000E-001	4.42706E-004	6	.....h....a	-327.68
	29	0.4	-2.51403E-001	-3.32617E-001	-2.92010E-001	-1.13171E-007	2.06534E-007	-3.19706E-007	-3.17000E-001	4.26456E-004	6	.....h....a	-327.68
	30	0.413333	-2.49382E-001	-3.30593E-001	-2.89988E-001	-9.35538E-008	1.90997E-007	-2.84551E-007	-3.15000E-001	4.43956E-004	6	.....h....a	-327.68
	31	0.426667	-2.47400E-001	-3.28615E-001	-2.88007E-001	-7.37288E-008	1.76873E-007	-2.50602E-007	-3.13000E-001	4.22706E-004	6	.....h....a	-327.68
	32	0.44	-2.45393E-001	-3.26618E-001	-2.86006E-001	-5.82018E-008	1.61624E-007	-2.19825E-007	-3.11000E-001	4.38956E-004	6	.....h....a	-327.68
	33	0.453333	-2.43372E-001	-3.24590E-001	-2.83981E-001	-4.08471E-008	1.48447E-007	-1.89294E-007	-3.09000E-001	4.32706E-004	6	.....h....a	-327.68
	34	0.466667	-2.41367E-001	-3.22612E-001	-2.81990E-001	-2.54602E-008	1.35248E-007	-1.60708E-007	-3.07000E-001	4.15206E-004	6	.....h....a	-327.68
	35	0.48	-2.39397E-001	-3.20561E-001	-2.79979E-001	-9.59814E-009	1.22081E-007	-1.31679E-007	-3.05000E-001	4.08956E-004	6	.....h....a	-327.68
	36	0.493333	-2.37366E-001	-3.18565E-001	-2.77965E-001	5.56879E-009	1.10470E-007	-1.04901E-007	-3.03000E-001	4.15206E-004	6	.....h....a	-327.68
	37	0.506667	-2.35380E-001	-3.16572E-001	-2.75976E-001	1.84079E-008	9.88757E-008	-8.04677E-008	-3.01000E-001	4.03956E-004	6	.....h....a	-327.68
	38	0.52	-2.33357E-001	-3.14561E-001	-2.73959E-001	2.92068E-008	8.96695E-008	-6.04627E-008	-2.99000E-001	4.25206E-004	6	.....h....a	-327.68
	39	0.533333	-2.31326E-001	-3.12512E-001	-2.71919E-001	3.91656E-008	8.02308E-008	-4.10652E-008	-2.97000E-001	4.12706E-004	6	.....h....a	-327.68
	40	0.546667	-2.29370E-001	-3.10536E-001	-2.69953E-001	4.81617E-008	7.14022E-008	-2.32405E-008	-2.95000E-001	4.10206E-004	6	.....h....a	-327.68
	41	0.56	-2.27318E-001	-3.08495E-001	-2.67907E-001	5.61277E-008	6.56989E-008	-9.57122E-009	-2.93000E-001	4.20206E-004	6	.....h....a	-327.68
	42	0.573333	-2.25352E-001	-3.06508E-001	-2.65930E-001	5.88006E-008	6.09258E-008	-2.12527E-009	-2.91000E-001	4.22706E-004	6	.....h....a	-327.68
	43	0.586667	-2.23321E-001	-3.04460E-001	-2.63890E-001	6.18059E-008	5.81830E-008	3.62296E-009	-2.89000E-001	4.08956E-004	6	.....h....a	-327.68
	44	0.6	-2.21306E-001	-3.02467E-001	-2.61887E-001	6.31211E-008	5.51051E-008	8.01602E-009	-2.87000E-001	4.21456E-004	6	.....h....a	-327.68
	45	0.613333	-2.19293E-001	-3.00411E-001	-2.59852E-001	6.31336E-008	5.37699E-008	9.36369E-009	-2.85000E-001	4.15206E-004	6	.....h....a	-327.68
	46	0.626667	-2.17280E-001	-2.98401E-001	-2.57840E-001	6.06683E-008	5.44550E-008	6.21329E-009	-2.83000E-001	4.08956E-004	6	.....h....a	-327.68
	47	0.64	-2.15268E-001	-2.96365E-001	-2.55817E-001	5.55827E-008	5.68153E-008	-1.23266E-009	-2.81000E-001	4.16456E-004	6	.....h....a	-327.68
	48	0.653333	-2.13276E-001	-2.94326E-001	-2.53801E-001	4.81692E-008	6.15609E-008	-1.33917E-008	-2.79000E-001	4.20206E-004	6	.....h....a	-327.68
	49	0.666667	-2.11246E-001	-2.92312E-001	-2.51779E-001	4.00782E-008	6.62115E-008	-2.61333E-008	-2.77000E-001	4.21456E-004	6	.....h....a	-327.68
	50	0.68	-2.09215E-001	-2.90307E-001	-2.49761E-001	3.07695E-008	7.07471E-008	-3.99776E-008	-2.75000E-001	4.20206E-004	6	.....h....a	-327.68
	51	0.693333	-2.07222E-001	-2.88248E-001	-2.47735E-001	2.02657E-008	7.80980E-008	-5.78324E-008	-2.73000E-001	4.07706E-004	6	.....h....a	-327.68
	52	0.706667	-2.05211E-001	-2.86193E-001	-2.45702E-001	7.45153E-009	8.75417E-008	-8.00902E-008	-2.71000E-001	4.12706E-004	6	.....h....a	-327.68
	53	0.72	-2.03247E-001	-2.84185E-001	-2.43716E-001	-8.27297E-009	9.86156E-008	-1.06889E-007	-2.69000E-001	4.16456E-004	6	.....h....a	-327.68
	54	0.733333	-2.01218E-001	-2.82165E-001	-2.41692E-001	-2.26948E-008	1.08004E-007	-1.30699E-007	-2.67000E-001	4.12706E-004	6	.....h....a	-327.68
	55	0.746667	-1.99256E-001	-2.80137E-001	-2.39697E-001	-3.88869E-008	1.18883E-007	-1.57770E-007	-2.65000E-001	4.02706E-004	6	.....h....a	-327.68
	56	0.76	-1.97237E-001	-2.78120E-001	-2.37678E-001	-5.40513E-008	1.31897E-007	-1.85949E-007	-2.63000E-001	4.13956E-004	6	.....h....a	-327.68
	57	0.773333	-1.95236E-001	-2.76073E-001	-2.35655E-001	-7.33212E-008	1.44746E-007	-2.18068E-007	-2.61000E-001	4.17706E-004	6	.....h....a	-327.68
	58	0.786667	-1.93225E-001	-2.74065E-001	-2.33645E-001	-9.14610E-008	1.58673E-007	-2.50134E-007	-2.59000E-001	4.25206E-004	6	.....h....a	-327.68
	59	0.8	-1.91258E-001	-2.72008E-001	-2.31633E-001	-1.10283E-007	1.72468E-007	-2.82751E-007	-2.57000E-001	4.17706E-004	6	.....h....a	-327.68
	60	0.813333	-1.89256E-001	-2.69995E-001	-2.29625E-001	-1.28821E-007	1.85979E-007	-3.14800E-007	-2.55000E-001	4.12706E-004	6	.....h....a	-327.68
	61	0.826667	-1.87290E-001	-2.67950E-001	-2.27620E-001	-1.46571E-007	1.99246E-007	-3.45816E-007	-2.53000E-001	4.18956E-004	6	.....h....a	-327.68
	62	0.84	-1.85267E-001	-2.65918E-001	-2.25593E-001	-1.65801E-007	2.15323E-007	-3.81123E-007	-2.51000E-001	4.33956E-004	6	.....h....a	-327.68
	63	0.853333	-1.83263E-001	-2.63886E-001	-2.23575E-001	-1.86626E-007	2.31425E-007	-4.18051E-007	-2.49000E-001	3.90206E-004	6	.....h....a	-327.68
	64	0.866667	-1.81317E-001	-2.61871E-001	-2.21594E-001	-2.04910E-007	2.45554E-007	-4.50465E-007	-2.47000E-001	4.12706E-004	6	.....h....a	-327.68
	65	0.88	-1.79337E-001	-2.59817E-001	-2.19577E-001	-2.22745E-007	2.59876E-007	-4.82621E-007	-2.45000E-001	4.12706E-004	6	.....h....a	-327.68
	66	0.893333	-1.77356E-001	-2.57830E-001	-2.17593E-001	-2.39987E-007	2.74536E-007	-5.14523E-007	-2.43000E-001	4.08956E-004	6	.....h....a	-327.68
	67	0.906667	-1.75383E-001	-2.55785E-001	-2.15584E-001	-2.58062E-007	2.89182E-007	-5.47245E-007	-2.41000E-001	4.31456E-004	6	.....h....a	-327.68
	68	0.92	-1.73387E-001	-2.53790E-001	-2.13588E-001	-2.76057E-007	3.04292E-007	-5.80349E-007	-2.39000E-001	4.17706E-004	6	.....h....a	-327.68
	69	0.933333	-1.71405E-001	-2.51787E-001	-2.11596E-001	-2.93102E-007	3.18084E-007	-6.11185E-007	-2.37000E-001	4.25206E-004	6	.....h....a	-327.68
	70	0.946667	-1.69421E-001	-2.49745E-001	-2.09583E-001	-3.08996E-007	3.30780E-007	-6.39776E-007	-2.35000E-001	4.05206E-004	6	.....h....a	-327.68
	71	0.96	-1.67486E-001	-2.47736E-001	-2.07611E-001	-3.24378E-007	3.44439E-007	-6.68818E-007	-2.33000E-001	4.43956E-004	6	.....h....a	-327.68
	72	0.97333	-1.65507E-001	-2.45706E-001	-2.05607E-001	-3.39480E-007	3.57719E-007	-6.97199E-007	-2.31000E-001	4.15206E-004	6	.....h....a	-327.68
	73	0.98667	-1.63503E-001	-2.43688E-001	-2.03596E-001	-3.54437E-007	3.70678E-007	-7.25115E-007	-2.29000E-001	4.22706E-004	6	.....h....a	-327.68
	74	1	-1.61556E-001	-2.41682E-001	-2.01619E-001	-3.67316E-007	3.83694E-007	-7.51011E-007	-2.27000E-001	4.32706E-004	6	.....h....a	-327.68
	75	1.01333	-1.59588E-001	-2.39657E-001	-1.99623E-001	-3.80543E-007	3.94238E-007	-7.74781E-007	-2.25000E-001	4.08956E-004	6	.....h....a	-327.68
	76	1.02667	-1.57577E-001	-2.37643E-001	-1.97610E-001	-3.91697E-007	4.05967E-007	-7.97664E-007	-2.23000E-001	4.13956E-004	6	.....h....a	-327.68
	77	1.04	-1.55638E-001	-2.35620E-001	-1.95629E-001	-4.04526E-007	4.17819E-007	-8.22345E-007	-2.21000E-001	4.02706E-004	6	.....h....a	-327.68
	78	1.05333	-1.53656E-001	-2.33610E-001	-1.93633E-001	-4.16082E-007	4.29483E-007	-8.45565E-007	-2.19000E-001	4.08956E-004	6	.....h....a	-327.68
	79	1.06667	-1.51698E-001	-2.31603E-001	-1.91651E-001	-4.25661E-007	4.38446E-007	-8.64107E-007	-2.17000E-001	4.13956E-004	6	.....h....a	-327.68
	80	1.08	-1.49688E-001	-2.29610E-001	-1.89649E-001	-4.35087E-007	4.47097E-007	-8.82185E-007	-2.15000E-001	4.12706E-004	6	.....h....a	-327.68
	81	1.09333	-1.47753E-001	-2.27586E-001	-1.87670E-001	-4.42911E-007	4.56546E-007	-8.99457E-007	-2.13000E-001	4.30206E-004	6	.....h....a	-327.68
	82	1.10667	-1.45761E-001	-2.25572E-001	-1.85667E-001	-4.51837E-007	4.65770E-007	-9.17607E-007	-2.11000E-001	4.16456E-004	6	.....h....a	-327.68
	83	1.12	-1.43780E-001	-2.23528E-001	-1.83654E-001	-4.60516E-007	4.74451E-007	-9.34966E-007	-2.09000E-001	4.16456E-004	6	.....h....a	-327.68
	84	1.13333	-1.41807E-001	-2.21536E-001	-1.81672E-001	-4.68094E-007	4.82672E-007	-9.50766E-007	-2.07000E-001	4.31456E-004	6	.....h....a	-327.68
	85	1.14667	-1.39843E-001	-2.19512E-001	-1.79678E-001	-4.74747E-007	4.89038E-007	-9.63785E-007	-2.05000E-001	4.22706E-004	6	.....h....a	-327.68
	86	1.16	-1.37857E-001	-2.17528E-001	-1.77693E-001	-4.80143E-007	4.96139E-007	-9.76282E-007	-2.03000E-001	4.30206E-004	6	.....h....a	-327.68
	87	1.17333	-1.35855E-001	-2.15488E-001	-1.75672E-001	-4.85576E-007	5.03530E-007	-9.89106E-007	-2.01000E-001	4.23956E-004	6	.....h....a	-327.68
	88	1.18667	-1.33867E-001	-2.13530E-001	-1.73698E-001	-4.91759E-007	5.09970E-007	-1.00173E-006	-1.99000E-001	4.23956E-004	6	.....h....a	-327.68
	89	1.2	-1.31903E-001	-2.11501E-001	-1.71702E-001	-4.97270E-007	5.16261E-007	-1.01353E-006	-1.97000E-001	4.15206E-004	6	.....h....a	-327.68
	90	1.21333	-1.29922E-001	-2.09488E-001	-1.69705E-001	-5.01381E-007	5.20077E-007	-1.02146E-006	-1.95000E-001	4.22706E-004	6	.....h....a	-327.68
	91	1.22667	-1.27973E-001	-2.07460E-001	-1.67717E-001	-5.05536E-007	5.25927E-007	-1.03146E-006	-1.93000E-001	4.26456E-004	6	.....h....a	-327.68
	92	1.24	-1.25970E-001	-2.05448E-001	-1.65709E-001	-5.08159E-007	5.31136E-007	-1.03929E-006	-1.91000E-001	4.32706E-004	6	.....h....a	-327.68
	93	1.25333	-1.23973E-001	-2.03475E-001	-1.63724E-001	-5.13137E-007	5.36109E-007	-1.04925E-006	-1.89000E-001	4.11456E-004	6	.....h....a	-327.68
	94	1.26667	-1.22012E-001	-2.01461E-001	-1.61737E-001	-5.15898E-007	5.40074E-007	-1.05597E-006	-1.87000E-001	4.05206E-004	6	.....h....a	-327.68
	95	1.28	-1.20012E-001	-1.99448E-001	-1.59730E-001	-5.17960E-007	5.43042E-007	-1.06100E-006	-1.85000E-001	4.00206E-004	6	.....h....a	-327.68
	96	1.29333	-1.18015E-001	-1.97440E-001	-1.57727E-001	-5.20363E-007	5.47295E-007	-1.06766E-006	-1.83000E-001	4.22706E-004	6	.....h....a	-327.68
	97	1.30667	-1.16037E-001	-1.95431E-001	-1.55734E-001	-5.22971E-007	5.51151E-007	-1.07412E-006	-1.81000E-001	4.15206E-004	6	.....h....a	-327.68
	98	1.32	-1.14061E-001	-1.93447E-001	-1.53754E-001	-5.26439E-007	5.54936E-007	-1.08138E-006	-1.79000E-001	4.23956E-004	6	.....h....a	-327.68
	99	1.33333	-1.12072E-001	-1.91461E-001	-1.51767E-001	-5.27899E-007	5.57952E-007	-1.08585E-006	-1.77000E-001	4.17706E-004	6	.....h....a	-327.68
	100	1.34667	-1.10070E-001	-1.89463E-001	-1.49767E-001	-5.29742E-007	5.59764E-007	-1.08951E-006	-1.75000E-001	4.07706E-004	6	.....h....a	-327.68
