EXPLAIN
TAG	SQUARE_WAVE
TITLE	LABEL	Square Wave Voltammetry	Test Identifier
DATE	LABEL	8/31/2020	Date
TIME	LABEL	12:26:15	Time
NOTES	NOTES	1	Notes...
	
PSTAT	PSTAT	REF600-24079	Potentiostat
VINIT	QUANT	-3.50000E-001	Initial E (V)
VFINAL	QUANT	-1.50000E-001	Final E (V)
STEPSIZE	QUANT	2.00000E+000	Step Size (mV)
TIMERRES	QUANT	3.33340E-005	&Timer Resolution
FREQUENCY	QUANT	1.00000E+001	Frequency (Hz)
PULSESIZE	QUANT	2.50000E+001	Pulse Size E (mV)
PULSEON	QUANT	1.00000E-001	Pulse &Time (s)
NOISEREJECT	TOGGLE	F	Noise Rejection
AREA	QUANT	2.00000E-002	Sample Area (cm^2)
IMODE	SELECTOR	1	I/E Range Mode
IRANGE	QUANT	1.00000E-003	Max Current (mA)
EQDELAY	IQUANT	10	Equil. Time (s)
IRCOMP	SELECTOR	0	IRComp
PFCOR	QUANT	5.00000E+001	PF Corr. (ohm)
CYCLES	IQUANT	101	C&ycles (#)
ELECTRODETYPE	SELECTOR	0	Electrode Type
STRIPPING	TOGGLE	F	Used for Stripping
POLARITY	TOGGLE	F	Signal Polarity
LINEFREQ	IQUANT	60	Line Frequency (Hz)
INTPERIOD	QUANT	3.3334E-005	Integration Period (s)
SEQUENCER	TOGGLE	TRUE	Run as Sequence
PSTATMODEL	IQUANT	4	Pstat Model
PSTATSECTION	LABEL	REF600-24079	Pstat Section
PSTATSERIALNO	LABEL	24079	Pstat Serial Number
CTRLMODE	IQUANT	1	Control Mode
ELECTROMETER	IQUANT	0	RE=0 or CS=1
IESTAB	IQUANT	2	I/E Stability
CASPEED	IQUANT	6	Control Amp Speed
CONVENTION	IQUANT	1	Current Convention
ICHRANGE	IQUANT	2	Ich Range
ICHRANGEMODE	TOGGLE	F	Ich Auto Range
ICHOFFSETENABLE	TOGGLE	F	Ich Offset Enable
ICHOFFSET	QUANT	0	Ich Offset (V)
ICHFILTER	IQUANT	2	Ich Filter
VCHRANGE	IQUANT	2	Vch Range
VCHRANGEMODE	TOGGLE	F	Vch Auto Range
VCHOFFSETENABLE	TOGGLE	F	Vch Offset Enable
VCHOFFSET	QUANT	0	Vch Offset (V)
VCHFILTER	IQUANT	2	Vch Filter
ACHRANGE	IQUANT	2	Ach Range
ACHOFFSETENABLE	TOGGLE	F	Ach Offset Enable
ACHOFFSET	QUANT	0	Ach Offset (V)
ACHFILTER	IQUANT	1	Ach Filter
IERANGELOWERLIMIT	IQUANT	1	I/E Range Lower Limit
IERANGEMODE	TOGGLE	F	I/E AutoRange
IERANGE	IQUANT	6	I/E Range
POSFEEDENABLE	TOGGLE	F	Positive Feedback IR Comp
POSFEEDRESISTANCE	QUANT	0	Positive Feedback Resistance (ohm)
ACHSELECT	IQUANT	0	Ach Select
SENSECABLEID	IQUANT	13	Sense Cable ID
PWRCABLEID	IQUANT	13	Power Cable ID
DCCALDATE	LABEL	6/30/2020	DC Calibration Date
ACCALDATE	LABEL	6/30/2020	AC Calibration Date
THERMOSELECT	IQUANT	1	Thermo Select
FRAMEWORKVERSION	LABEL	7.8.2	Framework Version
INSTRUMENTVERSION	LABEL	4.40	Instrument Version
CURVE	TABLE	101
	Pt	T	Vfwd	Vrev	Vstep	Ifwd	Irev	Idif	Sig	Ach	IERange	Over	Temp
	#	s	V	V	V	A	A	A	V	V	#	bits	deg C
	0	0.1	-3.24866E-001	-3.74888E-001	-3.49877E-001	-9.65464E-009	-3.75439E-008	2.78892E-008	-3.75000E-001	3.48206E-004	6	..........a	-327.68
	1	0.2	-3.22859E-001	-3.72890E-001	-3.47874E-001	1.32042E-009	-3.29603E-008	3.42807E-008	-3.73000E-001	3.07873E-004	6	..........a	-327.68
	2	0.3	-3.20900E-001	-3.70779E-001	-3.45839E-001	3.81240E-009	-3.15631E-008	3.53755E-008	-3.71000E-001	3.19539E-004	6	..........a	-327.68
	3	0.4	-3.18876E-001	-3.68946E-001	-3.43911E-001	5.33093E-009	-3.05460E-008	3.58769E-008	-3.69000E-001	3.11039E-004	6	..........a	-327.68
	4	0.5	-3.16781E-001	-3.66906E-001	-3.41844E-001	6.55508E-009	-3.01679E-008	3.67230E-008	-3.67000E-001	3.15706E-004	6	..........a	-327.68
	5	0.6	-3.14871E-001	-3.64863E-001	-3.39867E-001	7.66923E-009	-2.96842E-008	3.73534E-008	-3.65000E-001	3.21706E-004	6	..........a	-327.68
	6	0.7	-3.12896E-001	-3.62817E-001	-3.37856E-001	8.72869E-009	-2.97255E-008	3.84542E-008	-3.63000E-001	3.28206E-004	6	..........a	-327.68
	7	0.8	-3.10882E-001	-3.60881E-001	-3.35881E-001	9.93685E-009	-2.92288E-008	3.91656E-008	-3.61000E-001	3.16373E-004	6	..........a	-327.68
	8	0.9	-3.08790E-001	-3.58869E-001	-3.33830E-001	1.10640E-008	-2.93485E-008	4.04125E-008	-3.59000E-001	3.17873E-004	6	..........a	-327.68
	9	1	-3.06819E-001	-3.56853E-001	-3.31836E-001	1.22065E-008	-2.93201E-008	4.15266E-008	-3.57000E-001	3.12039E-004	6	..........a	-327.68
	10	1.1	-3.04878E-001	-3.54837E-001	-3.29857E-001	1.33873E-008	-2.93628E-008	4.27501E-008	-3.55000E-001	3.15373E-004	6	..........a	-327.68
	11	1.2	-3.02885E-001	-3.52891E-001	-3.27888E-001	1.48528E-008	-2.95455E-008	4.43983E-008	-3.53000E-001	3.22206E-004	6	..........a	-327.68
	12	1.3	-3.00890E-001	-3.50874E-001	-3.25882E-001	1.62910E-008	-3.01192E-008	4.64102E-008	-3.51000E-001	3.19039E-004	6	..........a	-327.68
	13	1.4	-2.98861E-001	-3.48881E-001	-3.23871E-001	1.77895E-008	-3.06050E-008	4.83945E-008	-3.49000E-001	3.18539E-004	6	..........a	-327.68
	14	1.5	-2.96892E-001	-3.46866E-001	-3.21879E-001	1.94777E-008	-3.11097E-008	5.05874E-008	-3.47000E-001	3.26539E-004	6	..........a	-327.68
	15	1.6	-2.94897E-001	-3.44955E-001	-3.19926E-001	2.13656E-008	-3.18811E-008	5.32468E-008	-3.45000E-001	3.28873E-004	6	..........a	-327.68
	16	1.7	-2.92753E-001	-3.42892E-001	-3.17823E-001	2.34226E-008	-3.27286E-008	5.61511E-008	-3.43000E-001	3.37206E-004	6	..........a	-327.68
	17	1.8	-2.90807E-001	-3.40851E-001	-3.15829E-001	2.56035E-008	-3.37567E-008	5.93602E-008	-3.41000E-001	3.34539E-004	6	..........a	-327.68
	18	1.9	-2.88923E-001	-3.38836E-001	-3.13879E-001	2.81772E-008	-3.47615E-008	6.29387E-008	-3.39000E-001	3.40873E-004	6	..........a	-327.68
	19	2	-2.86875E-001	-3.36877E-001	-3.11876E-001	3.05835E-008	-3.61730E-008	6.67565E-008	-3.37000E-001	3.51039E-004	6	..........a	-327.68
	20	2.1	-2.84810E-001	-3.34876E-001	-3.09843E-001	3.33952E-008	-3.77442E-008	7.11394E-008	-3.35000E-001	3.39206E-004	6	..........a	-327.68
	21	2.2	-2.82805E-001	-3.32786E-001	-3.07795E-001	3.60708E-008	-3.91914E-008	7.52622E-008	-3.33000E-001	3.42873E-004	6	..........a	-327.68
	22	2.3	-2.80938E-001	-3.30825E-001	-3.05881E-001	3.92129E-008	-4.13340E-008	8.05469E-008	-3.31000E-001	3.46873E-004	6	..........a	-327.68
	23	2.4	-2.78879E-001	-3.28892E-001	-3.03885E-001	4.23183E-008	-4.34770E-008	8.57953E-008	-3.29000E-001	3.53539E-004	6	..........a	-327.68
	24	2.5	-2.76869E-001	-3.26891E-001	-3.01880E-001	4.55587E-008	-4.58086E-008	9.13673E-008	-3.27000E-001	3.48873E-004	6	..........a	-327.68
	25	2.6	-2.74849E-001	-3.24882E-001	-2.99866E-001	4.90001E-008	-4.83039E-008	9.73040E-008	-3.25000E-001	3.44706E-004	6	..........a	-327.68
	26	2.7	-2.72890E-001	-3.22867E-001	-2.97879E-001	5.25039E-008	-5.10006E-008	1.03505E-007	-3.23000E-001	3.43373E-004	6	..........a	-327.68
	27	2.8	-2.70906E-001	-3.20871E-001	-2.95889E-001	5.58297E-008	-5.37509E-008	1.09581E-007	-3.21000E-001	3.41373E-004	6	..........a	-327.68
	28	2.9	-2.68878E-001	-3.18873E-001	-2.93876E-001	5.91464E-008	-5.69123E-008	1.16059E-007	-3.19000E-001	3.42706E-004	6	..........a	-327.68
	29	3	-2.66771E-001	-3.16807E-001	-2.91789E-001	6.27316E-008	-6.02588E-008	1.22990E-007	-3.17000E-001	3.31373E-004	6	..........a	-327.68
	30	3.1	-2.64893E-001	-3.14874E-001	-2.89883E-001	6.60623E-008	-6.39746E-008	1.30037E-007	-3.15000E-001	3.40539E-004	6	..........a	-327.68
	31	3.2	-2.62908E-001	-3.12904E-001	-2.87906E-001	6.90794E-008	-6.72340E-008	1.36313E-007	-3.13000E-001	3.37206E-004	6	..........a	-327.68
	32	3.3	-2.60795E-001	-3.10878E-001	-2.85837E-001	7.19717E-008	-7.09224E-008	1.42894E-007	-3.11000E-001	3.45873E-004	6	..........a	-327.68
	33	3.4	-2.58814E-001	-3.08873E-001	-2.83843E-001	7.43814E-008	-7.48343E-008	1.49216E-007	-3.09000E-001	3.51206E-004	6	..........a	-327.68
	34	3.5	-2.56862E-001	-3.06840E-001	-2.81851E-001	7.70937E-008	-7.81214E-008	1.55215E-007	-3.07000E-001	3.35706E-004	6	..........a	-327.68
	35	3.6	-2.54887E-001	-3.04912E-001	-2.79900E-001	7.87559E-008	-8.18208E-008	1.60577E-007	-3.05000E-001	3.34206E-004	6	..........a	-327.68
	36	3.7	-2.52826E-001	-3.02907E-001	-2.77866E-001	8.08339E-008	-8.55116E-008	1.66346E-007	-3.03000E-001	3.26373E-004	6	..........a	-327.68
	37	3.8	-2.50832E-001	-3.00899E-001	-2.75866E-001	8.18683E-008	-8.87734E-008	1.70642E-007	-3.01000E-001	3.34373E-004	6	..........a	-327.68
	38	3.9	-2.48886E-001	-2.98866E-001	-2.73876E-001	8.28178E-008	-9.19761E-008	1.74794E-007	-2.99000E-001	3.35373E-004	6	..........a	-327.68
	39	4	-2.46878E-001	-2.96899E-001	-2.71889E-001	8.32298E-008	-9.47065E-008	1.77936E-007	-2.97000E-001	3.35873E-004	6	..........a	-327.68
	40	4.1	-2.44884E-001	-2.94891E-001	-2.69887E-001	8.31368E-008	-9.70044E-008	1.80141E-007	-2.95000E-001	3.41539E-004	6	..........a	-327.68
	41	4.2	-2.42774E-001	-2.92767E-001	-2.67771E-001	8.29175E-008	-9.93124E-008	1.82230E-007	-2.93000E-001	3.43206E-004	6	..........a	-327.68
	42	4.3	-2.40913E-001	-2.90809E-001	-2.65861E-001	8.21314E-008	-1.01063E-007	1.83195E-007	-2.91000E-001	3.35873E-004	6	..........a	-327.68
	43	4.4	-2.38889E-001	-2.88931E-001	-2.63910E-001	8.11176E-008	-1.01909E-007	1.83026E-007	-2.89000E-001	3.34873E-004	6	..........a	-327.68
	44	4.5	-2.36847E-001	-2.86878E-001	-2.61863E-001	7.96010E-008	-1.02826E-007	1.82427E-007	-2.87000E-001	3.38039E-004	6	..........a	-327.68
	45	4.6	-2.34805E-001	-2.84854E-001	-2.59829E-001	7.80778E-008	-1.02963E-007	1.81040E-007	-2.85000E-001	3.48539E-004	6	..........a	-327.68
	46	4.7	-2.32857E-001	-2.82820E-001	-2.57838E-001	7.63026E-008	-1.02714E-007	1.79016E-007	-2.83000E-001	3.43539E-004	6	..........a	-327.68
	47	4.8	-2.30861E-001	-2.80932E-001	-2.55897E-001	7.42274E-008	-1.01974E-007	1.76201E-007	-2.81000E-001	3.41539E-004	6	..........a	-327.68
	48	4.9	-2.28796E-001	-2.78883E-001	-2.53840E-001	7.18151E-008	-1.00709E-007	1.72524E-007	-2.79000E-001	3.38373E-004	6	..........a	-327.68
	49	5	-2.26808E-001	-2.76888E-001	-2.51848E-001	6.93051E-008	-9.87490E-008	1.68054E-007	-2.77000E-001	3.33873E-004	6	..........a	-327.68
	50	5.1	-2.24870E-001	-2.74858E-001	-2.49864E-001	6.70578E-008	-9.66927E-008	1.63750E-007	-2.75000E-001	3.25706E-004	6	..........a	-327.68
	51	5.2	-2.22860E-001	-2.72892E-001	-2.47876E-001	6.43724E-008	-9.39077E-008	1.58280E-007	-2.73000E-001	3.17373E-004	6	..........a	-327.68
	52	5.3	-2.20863E-001	-2.70897E-001	-2.45880E-001	6.18318E-008	-9.10020E-008	1.52834E-007	-2.71000E-001	3.20873E-004	6	..........a	-327.68
	53	5.4	-2.18859E-001	-2.68883E-001	-2.43871E-001	5.90534E-008	-8.77102E-008	1.46764E-007	-2.69000E-001	3.17706E-004	6	..........a	-327.68
	54	5.5	-2.16912E-001	-2.66799E-001	-2.41855E-001	5.66881E-008	-8.40201E-008	1.40708E-007	-2.67000E-001	3.22039E-004	6	..........a	-327.68
	55	5.6	-2.14886E-001	-2.64922E-001	-2.39904E-001	5.41221E-008	-8.04863E-008	1.34608E-007	-2.65000E-001	3.46873E-004	6	..........a	-327.68
	56	5.7	-2.12861E-001	-2.62900E-001	-2.37880E-001	5.16952E-008	-7.63741E-008	1.28069E-007	-2.63000E-001	3.27039E-004	6	..........a	-327.68
	57	5.8	-2.10831E-001	-2.60852E-001	-2.35841E-001	4.92985E-008	-7.25016E-008	1.21800E-007	-2.61000E-001	3.47039E-004	6	..........a	-327.68
	58	5.9	-2.08865E-001	-2.58820E-001	-2.33843E-001	4.69379E-008	-6.85918E-008	1.15530E-007	-2.59000E-001	3.58206E-004	6	..........a	-327.68
	59	6	-2.06874E-001	-2.56882E-001	-2.31878E-001	4.46436E-008	-6.44203E-008	1.09064E-007	-2.57000E-001	3.59539E-004	6	..........a	-327.68
	60	6.1	-2.04801E-001	-2.54885E-001	-2.29843E-001	4.26813E-008	-6.04688E-008	1.03150E-007	-2.55000E-001	3.60539E-004	6	..........a	-327.68
	61	6.2	-2.02813E-001	-2.52883E-001	-2.27848E-001	4.04581E-008	-5.68693E-008	9.73274E-008	-2.53000E-001	3.52873E-004	6	..........a	-327.68
	62	6.3	-2.00887E-001	-2.50850E-001	-2.25869E-001	3.86895E-008	-5.28001E-008	9.14896E-008	-2.51000E-001	3.54039E-004	6	..........a	-327.68
	63	6.4	-1.98876E-001	-2.48888E-001	-2.23882E-001	3.70033E-008	-4.93084E-008	8.63117E-008	-2.49000E-001	3.45206E-004	6	..........a	-327.68
	64	6.5	-1.96865E-001	-2.46872E-001	-2.21868E-001	3.52021E-008	-4.59119E-008	8.11140E-008	-2.47000E-001	3.48206E-004	6	..........a	-327.68
	65	6.6	-1.94849E-001	-2.44872E-001	-2.19861E-001	3.38139E-008	-4.25448E-008	7.63587E-008	-2.45000E-001	3.58206E-004	6	..........a	-327.68
	66	6.7	-1.92893E-001	-2.42781E-001	-2.17837E-001	3.22757E-008	-3.98308E-008	7.21065E-008	-2.43000E-001	3.41539E-004	6	..........a	-327.68
	67	6.8	-1.90905E-001	-2.40880E-001	-2.15892E-001	3.11412E-008	-3.68654E-008	6.80066E-008	-2.41000E-001	3.50039E-004	6	..........a	-327.68
	68	6.9	-1.88782E-001	-2.38903E-001	-2.13842E-001	2.99691E-008	-3.41358E-008	6.41048E-008	-2.39000E-001	3.25373E-004	6	..........a	-327.68
	69	7	-1.86815E-001	-2.36876E-001	-2.11846E-001	2.87799E-008	-3.16838E-008	6.04637E-008	-2.37000E-001	3.27539E-004	6	..........a	-327.68
	70	7.1	-1.84901E-001	-2.34822E-001	-2.09861E-001	2.78541E-008	-2.94982E-008	5.73523E-008	-2.35000E-001	3.30039E-004	6	..........a	-327.68
	71	7.2	-1.82872E-001	-2.32871E-001	-2.07872E-001	2.71020E-008	-2.73372E-008	5.44393E-008	-2.33000E-001	3.31373E-004	6	..........a	-327.68
	72	7.3	-1.80825E-001	-2.30873E-001	-2.05849E-001	2.60856E-008	-2.55563E-008	5.16419E-008	-2.31000E-001	3.38039E-004	6	..........a	-327.68
	73	7.4	-1.78806E-001	-2.28827E-001	-2.03817E-001	2.56018E-008	-2.39031E-008	4.95050E-008	-2.29000E-001	3.33373E-004	6	..........a	-327.68
	74	7.5	-1.76867E-001	-2.26828E-001	-2.01847E-001	2.48857E-008	-2.21856E-008	4.70713E-008	-2.27000E-001	3.29373E-004	6	..........a	-327.68
	75	7.6	-1.74885E-001	-2.24881E-001	-1.99883E-001	2.41093E-008	-2.08324E-008	4.49417E-008	-2.25000E-001	3.24706E-004	6	..........a	-327.68
	76	7.7	-1.72855E-001	-2.22876E-001	-1.97865E-001	2.36876E-008	-1.95576E-008	4.32452E-008	-2.23000E-001	3.33039E-004	6	..........a	-327.68
	77	7.8	-1.70839E-001	-2.20877E-001	-1.95858E-001	2.31975E-008	-1.84094E-008	4.16070E-008	-2.21000E-001	3.35539E-004	6	..........a	-327.68
	78	7.9	-1.68867E-001	-2.18866E-001	-1.93867E-001	2.28045E-008	-1.73853E-008	4.01898E-008	-2.19000E-001	3.40539E-004	6	..........a	-327.68
	79	8	-1.66879E-001	-2.16927E-001	-1.91903E-001	2.25208E-008	-1.63075E-008	3.88283E-008	-2.17000E-001	3.45373E-004	6	..........a	-327.68
	80	8.1	-1.64739E-001	-2.14872E-001	-1.89805E-001	2.20624E-008	-1.56071E-008	3.76695E-008	-2.15000E-001	3.38039E-004	6	..........a	-327.68
	81	8.2	-1.62793E-001	-2.12792E-001	-1.87793E-001	2.18850E-008	-1.49477E-008	3.68327E-008	-2.13000E-001	3.36373E-004	6	..........a	-327.68
	82	8.3	-1.60910E-001	-2.10833E-001	-1.85871E-001	2.15430E-008	-1.42232E-008	3.57662E-008	-2.11000E-001	3.33206E-004	6	..........a	-327.68
	83	8.4	-1.58873E-001	-2.08873E-001	-1.83873E-001	2.14180E-008	-1.35288E-008	3.49468E-008	-2.09000E-001	3.25539E-004	6	..........a	-327.68
	84	8.5	-1.56815E-001	-2.06880E-001	-1.81848E-001	2.12566E-008	-1.28511E-008	3.41077E-008	-2.07000E-001	3.23873E-004	6	..........a	-327.68
	85	8.6	-1.54805E-001	-2.04778E-001	-1.79791E-001	2.12493E-008	-1.23300E-008	3.35793E-008	-2.05000E-001	3.30873E-004	6	..........a	-327.68
	86	8.7	-1.52906E-001	-2.02824E-001	-1.77865E-001	2.10916E-008	-1.19553E-008	3.30469E-008	-2.03000E-001	3.40373E-004	6	..........a	-327.68
	87	8.8	-1.50871E-001	-2.00892E-001	-1.75881E-001	2.09629E-008	-1.16669E-008	3.26298E-008	-2.01000E-001	3.33039E-004	6	..........a	-327.68
	88	8.9	-1.48859E-001	-1.98885E-001	-1.73872E-001	2.09926E-008	-1.12555E-008	3.22481E-008	-1.99000E-001	3.19539E-004	6	..........a	-327.68
	89	9	-1.46838E-001	-1.96859E-001	-1.71848E-001	2.10023E-008	-1.08945E-008	3.18967E-008	-1.97000E-001	3.24373E-004	6	..........a	-327.68
	90	9.1	-1.44877E-001	-1.94854E-001	-1.69865E-001	2.08629E-008	-1.05844E-008	3.14473E-008	-1.95000E-001	3.33206E-004	6	..........a	-327.68
	91	9.2	-1.42890E-001	-1.92885E-001	-1.67888E-001	2.07189E-008	-1.02434E-008	3.09623E-008	-1.93000E-001	3.28373E-004	6	..........a	-327.68
	92	9.3	-1.40870E-001	-1.90888E-001	-1.65879E-001	2.09022E-008	-9.81767E-009	3.07199E-008	-1.91000E-001	3.20706E-004	6	..........a	-327.68
	93	9.4	-1.38780E-001	-1.88777E-001	-1.63778E-001	2.08079E-008	-9.59497E-009	3.04029E-008	-1.89000E-001	3.33706E-004	6	..........a	-327.68
	94	9.5	-1.36899E-001	-1.86817E-001	-1.61858E-001	2.07626E-008	-9.53330E-009	3.02959E-008	-1.87000E-001	3.33873E-004	6	..........a	-327.68
	95	9.6	-1.34886E-001	-1.84881E-001	-1.59884E-001	2.08546E-008	-9.12824E-009	2.99828E-008	-1.85000E-001	3.32039E-004	6	..........a	-327.68
	96	9.7	-1.32783E-001	-1.82853E-001	-1.57818E-001	2.07532E-008	-9.20492E-009	2.99581E-008	-1.83000E-001	3.33539E-004	6	..........a	-327.68
	97	9.8	-1.30804E-001	-1.80818E-001	-1.55811E-001	2.10093E-008	-8.93922E-009	2.99485E-008	-1.81000E-001	3.35539E-004	6	..........a	-327.68
	98	9.9	-1.28860E-001	-1.78815E-001	-1.53837E-001	2.08259E-008	-8.86288E-009	2.96888E-008	-1.79000E-001	3.32206E-004	6	..........a	-327.68
	99	10	-1.26882E-001	-1.76865E-001	-1.51873E-001	2.09352E-008	-8.55817E-009	2.94934E-008	-1.77000E-001	3.33206E-004	6	..........a	-327.68
	100	10.1	-1.24824E-001	-1.74869E-001	-1.49847E-001	2.09442E-008	-8.41582E-009	2.93601E-008	-1.75000E-001	3.29873E-004	6	..........a	-327.68
