EXPLAIN
TAG	SQUARE_WAVE
TITLE	LABEL	Square Wave Voltammetry	Test Identifier
DATE	LABEL	8/25/2020	Date
TIME	LABEL	13:05:38	Time
NOTES	NOTES	1	Notes...
	
PSTAT	PSTAT	REF600-24079	Potentiostat
VINIT	QUANT	-3.50000E-001	Initial E (V)
VFINAL	QUANT	-1.50000E-001	Final E (V)
STEPSIZE	QUANT	2.00000E+000	Step Size (mV)
TIMERRES	QUANT	3.33340E-005	&Timer Resolution
FREQUENCY	QUANT	1.00000E+001	Frequency (Hz)
PULSESIZE	QUANT	2.50000E+001	Pulse Size E (mV)
PULSEON	QUANT	1.00000E-001	Pulse &Time (s)
NOISEREJECT	TOGGLE	F	Noise Rejection
AREA	QUANT	2.00000E-002	Sample Area (cm^2)
IMODE	SELECTOR	1	I/E Range Mode
IRANGE	QUANT	1.00000E-003	Max Current (mA)
EQDELAY	IQUANT	10	Equil. Time (s)
IRCOMP	SELECTOR	0	IRComp
PFCOR	QUANT	5.00000E+001	PF Corr. (ohm)
CYCLES	IQUANT	101	C&ycles (#)
ELECTRODETYPE	SELECTOR	0	Electrode Type
STRIPPING	TOGGLE	F	Used for Stripping
POLARITY	TOGGLE	F	Signal Polarity
LINEFREQ	IQUANT	60	Line Frequency (Hz)
INTPERIOD	QUANT	3.3334E-005	Integration Period (s)
SEQUENCER	TOGGLE	TRUE	Run as Sequence
PSTATMODEL	IQUANT	4	Pstat Model
PSTATSECTION	LABEL	REF600-24079	Pstat Section
PSTATSERIALNO	LABEL	24079	Pstat Serial Number
CTRLMODE	IQUANT	1	Control Mode
ELECTROMETER	IQUANT	0	RE=0 or CS=1
IESTAB	IQUANT	2	I/E Stability
CASPEED	IQUANT	6	Control Amp Speed
CONVENTION	IQUANT	1	Current Convention
ICHRANGE	IQUANT	2	Ich Range
ICHRANGEMODE	TOGGLE	F	Ich Auto Range
ICHOFFSETENABLE	TOGGLE	F	Ich Offset Enable
ICHOFFSET	QUANT	0	Ich Offset (V)
ICHFILTER	IQUANT	2	Ich Filter
VCHRANGE	IQUANT	2	Vch Range
VCHRANGEMODE	TOGGLE	F	Vch Auto Range
VCHOFFSETENABLE	TOGGLE	F	Vch Offset Enable
VCHOFFSET	QUANT	0	Vch Offset (V)
VCHFILTER	IQUANT	2	Vch Filter
ACHRANGE	IQUANT	2	Ach Range
ACHOFFSETENABLE	TOGGLE	F	Ach Offset Enable
ACHOFFSET	QUANT	0	Ach Offset (V)
ACHFILTER	IQUANT	1	Ach Filter
IERANGELOWERLIMIT	IQUANT	1	I/E Range Lower Limit
IERANGEMODE	TOGGLE	F	I/E AutoRange
IERANGE	IQUANT	6	I/E Range
POSFEEDENABLE	TOGGLE	F	Positive Feedback IR Comp
POSFEEDRESISTANCE	QUANT	0	Positive Feedback Resistance (ohm)
ACHSELECT	IQUANT	0	Ach Select
SENSECABLEID	IQUANT	13	Sense Cable ID
PWRCABLEID	IQUANT	13	Power Cable ID
DCCALDATE	LABEL	6/30/2020	DC Calibration Date
ACCALDATE	LABEL	6/30/2020	AC Calibration Date
THERMOSELECT	IQUANT	1	Thermo Select
FRAMEWORKVERSION	LABEL	7.8.2	Framework Version
INSTRUMENTVERSION	LABEL	4.40	Instrument Version
CURVE	TABLE	101
	Pt	T	Vfwd	Vrev	Vstep	Ifwd	Irev	Idif	Sig	Ach	IERange	Over	Temp
	#	s	V	V	V	A	A	A	V	V	#	bits	deg C
	0	0.1	-3.25052E-001	-3.75012E-001	-3.50032E-001	-9.09757E-009	-3.80386E-008	2.89410E-008	-3.75000E-001	4.16873E-004	6	..........a	-327.68
	1	0.2	-3.22993E-001	-3.73057E-001	-3.48025E-001	1.87916E-009	-3.34067E-008	3.52858E-008	-3.73000E-001	4.17373E-004	6	..........a	-327.68
	2	0.3	-3.21084E-001	-3.70997E-001	-3.46040E-001	4.03010E-009	-3.15208E-008	3.55509E-008	-3.71000E-001	4.18206E-004	6	..........a	-327.68
	3	0.4	-3.19048E-001	-3.69125E-001	-3.44086E-001	5.33826E-009	-3.04160E-008	3.57542E-008	-3.69000E-001	4.15539E-004	6	..........a	-327.68
	4	0.5	-3.17096E-001	-3.67015E-001	-3.42055E-001	6.15203E-009	-2.98332E-008	3.59852E-008	-3.67000E-001	4.13539E-004	6	..........a	-327.68
	5	0.6	-3.14976E-001	-3.65072E-001	-3.40024E-001	7.03281E-009	-2.90714E-008	3.61043E-008	-3.65000E-001	4.18039E-004	6	..........a	-327.68
	6	0.7	-3.13108E-001	-3.62960E-001	-3.38034E-001	7.61889E-009	-2.85647E-008	3.61836E-008	-3.63000E-001	4.20539E-004	6	..........a	-327.68
	7	0.8	-3.11035E-001	-3.61099E-001	-3.36067E-001	8.21830E-009	-2.78646E-008	3.60829E-008	-3.61000E-001	4.11873E-004	6	..........a	-327.68
	8	0.9	-3.09099E-001	-3.59013E-001	-3.34056E-001	8.88538E-009	-2.76396E-008	3.65250E-008	-3.59000E-001	4.17873E-004	6	..........a	-327.68
	9	1	-3.06959E-001	-3.57100E-001	-3.32029E-001	9.54146E-009	-2.71692E-008	3.67107E-008	-3.57000E-001	4.07539E-004	6	..........a	-327.68
	10	1.1	-3.05114E-001	-3.54977E-001	-3.30046E-001	1.00375E-008	-2.70015E-008	3.70390E-008	-3.55000E-001	4.22039E-004	6	..........a	-327.68
	11	1.2	-3.03073E-001	-3.53082E-001	-3.28077E-001	1.06563E-008	-2.66905E-008	3.73468E-008	-3.53000E-001	4.15539E-004	6	..........a	-327.68
	12	1.3	-3.01104E-001	-3.50989E-001	-3.26046E-001	1.12217E-008	-2.64541E-008	3.76758E-008	-3.51000E-001	4.10039E-004	6	..........a	-327.68
	13	1.4	-2.98990E-001	-3.49052E-001	-3.24021E-001	1.19691E-008	-2.62318E-008	3.82009E-008	-3.49000E-001	4.09206E-004	6	..........a	-327.68
	14	1.5	-2.97091E-001	-3.46994E-001	-3.22043E-001	1.24622E-008	-2.63378E-008	3.87999E-008	-3.47000E-001	4.21539E-004	6	..........a	-327.68
	15	1.6	-2.95038E-001	-3.45125E-001	-3.20081E-001	1.32723E-008	-2.61617E-008	3.94340E-008	-3.45000E-001	4.07873E-004	6	..........a	-327.68
	16	1.7	-2.93037E-001	-3.43014E-001	-3.18025E-001	1.40880E-008	-2.62448E-008	4.03328E-008	-3.43000E-001	4.15873E-004	6	..........a	-327.68
	17	1.8	-2.90950E-001	-3.41056E-001	-3.16003E-001	1.47698E-008	-2.63748E-008	4.11446E-008	-3.41000E-001	4.01706E-004	6	..........a	-327.68
	18	1.9	-2.89114E-001	-3.38969E-001	-3.14041E-001	1.56362E-008	-2.63301E-008	4.19663E-008	-3.39000E-001	4.08539E-004	6	..........a	-327.68
	19	2	-2.87033E-001	-3.37096E-001	-3.12064E-001	1.65597E-008	-2.63631E-008	4.29228E-008	-3.37000E-001	4.09539E-004	6	..........a	-327.68
	20	2.1	-2.85096E-001	-3.35022E-001	-3.10059E-001	1.74785E-008	-2.66448E-008	4.41233E-008	-3.35000E-001	4.16873E-004	6	..........a	-327.68
	21	2.2	-2.82979E-001	-3.33074E-001	-3.08026E-001	1.84883E-008	-2.69908E-008	4.54791E-008	-3.33000E-001	4.22373E-004	6	..........a	-327.68
	22	2.3	-2.81117E-001	-3.30961E-001	-3.06039E-001	1.96197E-008	-2.71555E-008	4.67753E-008	-3.31000E-001	4.17206E-004	6	..........a	-327.68
	23	2.4	-2.79049E-001	-3.29097E-001	-3.04073E-001	2.07746E-008	-2.76429E-008	4.84175E-008	-3.29000E-001	4.12873E-004	6	..........a	-327.68
	24	2.5	-2.77112E-001	-3.27010E-001	-3.02061E-001	2.17437E-008	-2.80953E-008	4.98390E-008	-3.27000E-001	4.14206E-004	6	..........a	-327.68
	25	2.6	-2.75000E-001	-3.25061E-001	-3.00030E-001	2.32015E-008	-2.89908E-008	5.21923E-008	-3.25000E-001	4.17373E-004	6	..........a	-327.68
	26	2.7	-2.73084E-001	-3.22994E-001	-2.98039E-001	2.40756E-008	-2.93658E-008	5.34415E-008	-3.23000E-001	4.20373E-004	6	..........a	-327.68
	27	2.8	-2.71022E-001	-3.21055E-001	-2.96038E-001	2.53951E-008	-2.99966E-008	5.53917E-008	-3.21000E-001	4.20373E-004	6	..........a	-327.68
	28	2.9	-2.69062E-001	-3.19043E-001	-2.94052E-001	2.64963E-008	-3.06743E-008	5.71706E-008	-3.19000E-001	4.15373E-004	6	..........a	-327.68
	29	3	-2.66945E-001	-3.17083E-001	-2.92014E-001	2.78721E-008	-3.15628E-008	5.94349E-008	-3.17000E-001	4.15706E-004	6	..........a	-327.68
	30	3.1	-2.65124E-001	-3.14967E-001	-2.90045E-001	2.89543E-008	-3.23752E-008	6.13295E-008	-3.15000E-001	4.09373E-004	6	..........a	-327.68
	31	3.2	-2.62995E-001	-3.13089E-001	-2.88042E-001	3.01354E-008	-3.31920E-008	6.33274E-008	-3.13000E-001	4.13873E-004	6	..........a	-327.68
	32	3.3	-2.61096E-001	-3.11011E-001	-2.86054E-001	3.11395E-008	-3.41641E-008	6.53036E-008	-3.11000E-001	4.29539E-004	6	..........a	-327.68
	33	3.4	-2.58973E-001	-3.09082E-001	-2.84027E-001	3.20900E-008	-3.50085E-008	6.70985E-008	-3.09000E-001	4.19539E-004	6	..........a	-327.68
	34	3.5	-2.57106E-001	-3.06970E-001	-2.82038E-001	3.28708E-008	-3.60233E-008	6.88941E-008	-3.07000E-001	4.19039E-004	6	..........a	-327.68
	35	3.6	-2.55033E-001	-3.05116E-001	-2.80075E-001	3.36655E-008	-3.69618E-008	7.06273E-008	-3.05000E-001	4.16373E-004	6	..........a	-327.68
	36	3.7	-2.53105E-001	-3.03038E-001	-2.78071E-001	3.43113E-008	-3.76912E-008	7.20025E-008	-3.03000E-001	4.26706E-004	6	..........a	-327.68
	37	3.8	-2.50997E-001	-3.01086E-001	-2.76041E-001	3.47860E-008	-3.87570E-008	7.35430E-008	-3.01000E-001	4.18373E-004	6	..........a	-327.68
	38	3.9	-2.49088E-001	-2.98975E-001	-2.74032E-001	3.51967E-008	-3.95051E-008	7.47018E-008	-2.99000E-001	4.11873E-004	6	..........a	-327.68
	39	4	-2.47003E-001	-2.97057E-001	-2.72030E-001	3.54504E-008	-4.04696E-008	7.59200E-008	-2.97000E-001	4.14206E-004	6	..........a	-327.68
	40	4.1	-2.45045E-001	-2.94994E-001	-2.70019E-001	3.56631E-008	-4.11737E-008	7.68368E-008	-2.95000E-001	4.18039E-004	6	..........a	-327.68
	41	4.2	-2.42999E-001	-2.93078E-001	-2.68039E-001	3.54048E-008	-4.17101E-008	7.71148E-008	-2.93000E-001	4.11539E-004	6	..........a	-327.68
	42	4.3	-2.41127E-001	-2.90967E-001	-2.66047E-001	3.54371E-008	-4.22635E-008	7.77005E-008	-2.91000E-001	4.18873E-004	6	..........a	-327.68
	43	4.4	-2.39039E-001	-2.89072E-001	-2.64056E-001	3.52087E-008	-4.25822E-008	7.77909E-008	-2.89000E-001	4.15373E-004	6	..........a	-327.68
	44	4.5	-2.37070E-001	-2.86977E-001	-2.62024E-001	3.49334E-008	-4.27935E-008	7.77269E-008	-2.87000E-001	4.27039E-004	6	..........a	-327.68
	45	4.6	-2.34966E-001	-2.85090E-001	-2.60028E-001	3.45096E-008	-4.28855E-008	7.73952E-008	-2.85000E-001	4.12539E-004	6	..........a	-327.68
	46	4.7	-2.33106E-001	-2.82985E-001	-2.58045E-001	3.37239E-008	-4.29195E-008	7.66434E-008	-2.83000E-001	4.21873E-004	6	..........a	-327.68
	47	4.8	-2.31004E-001	-2.81112E-001	-2.56058E-001	3.33735E-008	-4.26672E-008	7.60407E-008	-2.81000E-001	4.29206E-004	6	..........a	-327.68
	48	4.9	-2.29097E-001	-2.78994E-001	-2.54045E-001	3.27434E-008	-4.25138E-008	7.52572E-008	-2.79000E-001	4.17206E-004	6	..........a	-327.68
	49	5	-2.26974E-001	-2.77069E-001	-2.52021E-001	3.18753E-008	-4.19081E-008	7.37834E-008	-2.77000E-001	4.09706E-004	6	..........a	-327.68
	50	5.1	-2.25090E-001	-2.74979E-001	-2.50034E-001	3.10255E-008	-4.13117E-008	7.23372E-008	-2.75000E-001	4.06206E-004	6	..........a	-327.68
	51	5.2	-2.23006E-001	-2.73059E-001	-2.48032E-001	3.04568E-008	-4.04349E-008	7.08917E-008	-2.73000E-001	4.10373E-004	6	..........a	-327.68
	52	5.3	-2.21065E-001	-2.71000E-001	-2.46033E-001	2.97814E-008	-3.94758E-008	6.92571E-008	-2.71000E-001	4.05539E-004	6	..........a	-327.68
	53	5.4	-2.19005E-001	-2.69049E-001	-2.44027E-001	2.88202E-008	-3.86243E-008	6.74446E-008	-2.69000E-001	4.09373E-004	6	..........a	-327.68
	54	5.5	-2.17122E-001	-2.66938E-001	-2.42030E-001	2.79268E-008	-3.76799E-008	6.56067E-008	-2.67000E-001	4.13873E-004	6	..........a	-327.68
	55	5.6	-2.15000E-001	-2.65117E-001	-2.40059E-001	2.72641E-008	-3.65921E-008	6.38561E-008	-2.65000E-001	4.09873E-004	6	..........a	-327.68
	56	5.7	-2.13080E-001	-2.62972E-001	-2.38026E-001	2.63019E-008	-3.53569E-008	6.16588E-008	-2.63000E-001	4.03706E-004	6	..........a	-327.68
	57	5.8	-2.10982E-001	-2.61088E-001	-2.36035E-001	2.56785E-008	-3.42294E-008	5.99080E-008	-2.61000E-001	4.11206E-004	6	..........a	-327.68
	58	5.9	-2.09101E-001	-2.58968E-001	-2.34034E-001	2.48657E-008	-3.27059E-008	5.75717E-008	-2.59000E-001	4.02206E-004	6	..........a	-327.68
	59	6	-2.07025E-001	-2.57087E-001	-2.32056E-001	2.42273E-008	-3.14624E-008	5.56898E-008	-2.57000E-001	4.14373E-004	6	..........a	-327.68
	60	6.1	-2.05096E-001	-2.55031E-001	-2.30063E-001	2.35199E-008	-3.04226E-008	5.39425E-008	-2.55000E-001	4.00873E-004	6	..........a	-327.68
	61	6.2	-2.02978E-001	-2.53080E-001	-2.28029E-001	2.29398E-008	-2.92031E-008	5.21430E-008	-2.53000E-001	4.14039E-004	6	..........a	-327.68
	62	6.3	-2.01112E-001	-2.50982E-001	-2.26047E-001	2.23588E-008	-2.79286E-008	5.02874E-008	-2.51000E-001	4.04373E-004	6	..........a	-327.68
	63	6.4	-1.99035E-001	-2.49070E-001	-2.24053E-001	2.19007E-008	-2.67205E-008	4.86212E-008	-2.49000E-001	4.05373E-004	6	..........a	-327.68
	64	6.5	-1.97088E-001	-2.46984E-001	-2.22036E-001	2.11839E-008	-2.55290E-008	4.67129E-008	-2.47000E-001	4.08539E-004	6	..........a	-327.68
	65	6.6	-1.95022E-001	-2.45033E-001	-2.20027E-001	2.07672E-008	-2.44355E-008	4.52027E-008	-2.45000E-001	4.09706E-004	6	..........a	-327.68
	66	6.7	-1.93078E-001	-2.42997E-001	-2.18037E-001	2.03292E-008	-2.32420E-008	4.35712E-008	-2.43000E-001	4.05706E-004	6	..........a	-327.68
	67	6.8	-1.91069E-001	-2.41119E-001	-2.16094E-001	1.99635E-008	-2.22773E-008	4.22407E-008	-2.41000E-001	4.02873E-004	6	..........a	-327.68
	68	6.9	-1.89107E-001	-2.38995E-001	-2.14051E-001	1.96304E-008	-2.13641E-008	4.09945E-008	-2.39000E-001	4.15039E-004	6	..........a	-327.68
	69	7	-1.86965E-001	-2.37057E-001	-2.12011E-001	1.94837E-008	-2.03357E-008	3.98194E-008	-2.37000E-001	4.07873E-004	6	..........a	-327.68
	70	7.1	-1.85110E-001	-2.34959E-001	-2.10035E-001	1.89350E-008	-1.97836E-008	3.87186E-008	-2.35000E-001	4.10873E-004	6	..........a	-327.68
	71	7.2	-1.83037E-001	-2.33099E-001	-2.08068E-001	1.86260E-008	-1.89265E-008	3.75524E-008	-2.33000E-001	4.03373E-004	6	..........a	-327.68
	72	7.3	-1.81106E-001	-2.31014E-001	-2.06060E-001	1.83853E-008	-1.82051E-008	3.65903E-008	-2.31000E-001	4.13206E-004	6	..........a	-327.68
	73	7.4	-1.78976E-001	-2.29102E-001	-2.04039E-001	1.81656E-008	-1.76217E-008	3.57872E-008	-2.29000E-001	4.10873E-004	6	..........a	-327.68
	74	7.5	-1.77109E-001	-2.26975E-001	-2.02042E-001	1.79092E-008	-1.70182E-008	3.49274E-008	-2.27000E-001	4.07873E-004	6	..........a	-327.68
	75	7.6	-1.75067E-001	-2.25087E-001	-2.00077E-001	1.78189E-008	-1.65562E-008	3.43750E-008	-2.25000E-001	4.06706E-004	6	..........a	-327.68
	76	7.7	-1.73106E-001	-2.22993E-001	-1.98049E-001	1.79172E-008	-1.58254E-008	3.37426E-008	-2.23000E-001	3.99373E-004	6	..........a	-327.68
	77	7.8	-1.71007E-001	-2.21050E-001	-1.96028E-001	1.76118E-008	-1.55814E-008	3.31932E-008	-2.21000E-001	4.11039E-004	6	..........a	-327.68
	78	7.9	-1.69094E-001	-2.18980E-001	-1.94037E-001	1.74578E-008	-1.50620E-008	3.25198E-008	-2.19000E-001	4.08373E-004	6	..........a	-327.68
	79	8	-1.67027E-001	-2.17126E-001	-1.92077E-001	1.73448E-008	-1.47296E-008	3.20744E-008	-2.17000E-001	4.02206E-004	6	..........a	-327.68
	80	8.1	-1.65062E-001	-2.14995E-001	-1.90029E-001	1.71638E-008	-1.42679E-008	3.14317E-008	-2.15000E-001	4.13706E-004	6	..........a	-327.68
	81	8.2	-1.62957E-001	-2.13058E-001	-1.88007E-001	1.71494E-008	-1.39762E-008	3.11256E-008	-2.13000E-001	3.97206E-004	6	..........a	-327.68
	82	8.3	-1.61097E-001	-2.10955E-001	-1.86026E-001	1.71868E-008	-1.36842E-008	3.08709E-008	-2.11000E-001	3.99706E-004	6	..........a	-327.68
	83	8.4	-1.59038E-001	-2.09088E-001	-1.84063E-001	1.72704E-008	-1.34745E-008	3.07449E-008	-2.09000E-001	4.06373E-004	6	..........a	-327.68
	84	8.5	-1.57103E-001	-2.07012E-001	-1.82057E-001	1.72781E-008	-1.31284E-008	3.04065E-008	-2.07000E-001	4.10206E-004	6	..........a	-327.68
	85	8.6	-1.54968E-001	-2.05064E-001	-1.80016E-001	1.71228E-008	-1.27957E-008	2.99185E-008	-2.05000E-001	3.91206E-004	6	..........a	-327.68
	86	8.7	-1.53118E-001	-2.02956E-001	-1.78037E-001	1.70794E-008	-1.25834E-008	2.96628E-008	-2.03000E-001	4.02706E-004	6	..........a	-327.68
	87	8.8	-1.51056E-001	-2.01093E-001	-1.76075E-001	1.70961E-008	-1.25487E-008	2.96448E-008	-2.01000E-001	3.98039E-004	6	..........a	-327.68
	88	8.9	-1.49112E-001	-1.99011E-001	-1.74062E-001	1.71368E-008	-1.22426E-008	2.93794E-008	-1.99000E-001	3.97039E-004	6	..........a	-327.68
	89	9	-1.46991E-001	-1.97056E-001	-1.72024E-001	1.70491E-008	-1.20439E-008	2.90930E-008	-1.97000E-001	3.97373E-004	6	..........a	-327.68
	90	9.1	-1.45095E-001	-1.94985E-001	-1.70040E-001	1.69571E-008	-1.18319E-008	2.87890E-008	-1.95000E-001	4.05706E-004	6	..........a	-327.68
	91	9.2	-1.43037E-001	-1.93048E-001	-1.68042E-001	1.71354E-008	-1.19156E-008	2.90510E-008	-1.93000E-001	3.95039E-004	6	..........a	-327.68
	92	9.3	-1.41078E-001	-1.91027E-001	-1.66052E-001	1.72534E-008	-1.16296E-008	2.88830E-008	-1.91000E-001	4.12539E-004	6	..........a	-327.68
	93	9.4	-1.38942E-001	-1.89082E-001	-1.64012E-001	1.70931E-008	-1.11865E-008	2.82796E-008	-1.89000E-001	4.06539E-004	6	..........a	-327.68
	94	9.5	-1.37122E-001	-1.86945E-001	-1.62034E-001	1.71594E-008	-1.13622E-008	2.85216E-008	-1.87000E-001	4.08373E-004	6	..........a	-327.68
	95	9.6	-1.35046E-001	-1.85090E-001	-1.60068E-001	1.73261E-008	-1.11622E-008	2.84883E-008	-1.85000E-001	4.12039E-004	6	..........a	-327.68
	96	9.7	-1.33106E-001	-1.83007E-001	-1.58056E-001	1.71794E-008	-1.12442E-008	2.84236E-008	-1.83000E-001	4.04873E-004	6	..........a	-327.68
	97	9.8	-1.30964E-001	-1.81072E-001	-1.56018E-001	1.72121E-008	-1.09648E-008	2.81769E-008	-1.81000E-001	4.08373E-004	6	..........a	-327.68
	98	9.9	-1.29096E-001	-1.78968E-001	-1.54032E-001	1.72308E-008	-1.08741E-008	2.81049E-008	-1.79000E-001	4.00373E-004	6	..........a	-327.68
	99	10	-1.27058E-001	-1.77107E-001	-1.52082E-001	1.74198E-008	-1.08241E-008	2.82439E-008	-1.77000E-001	3.96873E-004	6	..........a	-327.68
	100	10.1	-1.25108E-001	-1.75011E-001	-1.50059E-001	1.72521E-008	-1.08201E-008	2.80722E-008	-1.75000E-001	4.16039E-004	6	..........a	-327.68
