EXPLAIN
TAG	SQUARE_WAVE
TITLE	LABEL	Square Wave Voltammetry	Test Identifier
DATE	LABEL	8/25/2020	Date
TIME	LABEL	13:09:10	Time
NOTES	NOTES	1	Notes...
	
PSTAT	PSTAT	REF600-24079	Potentiostat
VINIT	QUANT	-3.50000E-001	Initial E (V)
VFINAL	QUANT	-1.50000E-001	Final E (V)
STEPSIZE	QUANT	2.00000E+000	Step Size (mV)
TIMERRES	QUANT	3.33340E-005	&Timer Resolution
FREQUENCY	QUANT	2.50000E+001	Frequency (Hz)
PULSESIZE	QUANT	2.50000E+001	Pulse Size E (mV)
PULSEON	QUANT	4.00000E-002	Pulse &Time (s)
NOISEREJECT	TOGGLE	F	Noise Rejection
AREA	QUANT	2.00000E-002	Sample Area (cm^2)
IMODE	SELECTOR	1	I/E Range Mode
IRANGE	QUANT	1.00000E-003	Max Current (mA)
EQDELAY	IQUANT	10	Equil. Time (s)
IRCOMP	SELECTOR	0	IRComp
PFCOR	QUANT	5.00000E+001	PF Corr. (ohm)
CYCLES	IQUANT	101	C&ycles (#)
ELECTRODETYPE	SELECTOR	0	Electrode Type
STRIPPING	TOGGLE	F	Used for Stripping
POLARITY	TOGGLE	F	Signal Polarity
LINEFREQ	IQUANT	60	Line Frequency (Hz)
INTPERIOD	QUANT	3.3334E-005	Integration Period (s)
SEQUENCER	TOGGLE	TRUE	Run as Sequence
PSTATMODEL	IQUANT	4	Pstat Model
PSTATSECTION	LABEL	REF600-24079	Pstat Section
PSTATSERIALNO	LABEL	24079	Pstat Serial Number
CTRLMODE	IQUANT	1	Control Mode
ELECTROMETER	IQUANT	0	RE=0 or CS=1
IESTAB	IQUANT	2	I/E Stability
CASPEED	IQUANT	6	Control Amp Speed
CONVENTION	IQUANT	1	Current Convention
ICHRANGE	IQUANT	2	Ich Range
ICHRANGEMODE	TOGGLE	F	Ich Auto Range
ICHOFFSETENABLE	TOGGLE	F	Ich Offset Enable
ICHOFFSET	QUANT	0	Ich Offset (V)
ICHFILTER	IQUANT	2	Ich Filter
VCHRANGE	IQUANT	2	Vch Range
VCHRANGEMODE	TOGGLE	F	Vch Auto Range
VCHOFFSETENABLE	TOGGLE	F	Vch Offset Enable
VCHOFFSET	QUANT	0	Vch Offset (V)
VCHFILTER	IQUANT	2	Vch Filter
ACHRANGE	IQUANT	2	Ach Range
ACHOFFSETENABLE	TOGGLE	F	Ach Offset Enable
ACHOFFSET	QUANT	0	Ach Offset (V)
ACHFILTER	IQUANT	1	Ach Filter
IERANGELOWERLIMIT	IQUANT	1	I/E Range Lower Limit
IERANGEMODE	TOGGLE	F	I/E AutoRange
IERANGE	IQUANT	6	I/E Range
POSFEEDENABLE	TOGGLE	F	Positive Feedback IR Comp
POSFEEDRESISTANCE	QUANT	0	Positive Feedback Resistance (ohm)
ACHSELECT	IQUANT	0	Ach Select
SENSECABLEID	IQUANT	13	Sense Cable ID
PWRCABLEID	IQUANT	13	Power Cable ID
DCCALDATE	LABEL	6/30/2020	DC Calibration Date
ACCALDATE	LABEL	6/30/2020	AC Calibration Date
THERMOSELECT	IQUANT	1	Thermo Select
FRAMEWORKVERSION	LABEL	7.8.2	Framework Version
INSTRUMENTVERSION	LABEL	4.40	Instrument Version
CURVE	TABLE	101
	Pt	T	Vfwd	Vrev	Vstep	Ifwd	Irev	Idif	Sig	Ach	IERange	Over	Temp
	#	s	V	V	V	A	A	A	V	V	#	bits	deg C
	0	0.04	-3.25046E-001	-3.75687E-001	-3.50367E-001	-4.70335E-009	-2.12905E-008	1.65871E-008	-3.75000E-001	4.42289E-004	6	..........a	-327.68
	1	0.08	-3.22294E-001	-3.73679E-001	-3.47987E-001	-1.99828E-008	-1.21018E-008	-7.88100E-009	-3.73000E-001	4.31039E-004	6	..........a	-327.68
	2	0.12	-3.20252E-001	-3.71689E-001	-3.45970E-001	-1.52947E-008	-8.36715E-009	-6.92755E-009	-3.71000E-001	4.27289E-004	6	..........a	-327.68
	3	0.16	-3.18289E-001	-3.69655E-001	-3.43972E-001	-1.14217E-008	-6.40607E-009	-5.01564E-009	-3.69000E-001	4.35623E-004	6	..........a	-327.68
	4	0.2	-3.16291E-001	-3.67686E-001	-3.41988E-001	-1.02591E-008	-5.14507E-009	-5.11398E-009	-3.67000E-001	4.28539E-004	6	..........a	-327.68
	5	0.24	-3.14286E-001	-3.65672E-001	-3.39979E-001	-8.92138E-009	-3.64738E-009	-5.27400E-009	-3.65000E-001	4.37289E-004	6	..........a	-327.68
	6	0.28	-3.12264E-001	-3.63679E-001	-3.37972E-001	-6.03518E-009	-3.56070E-009	-2.47448E-009	-3.63000E-001	4.26039E-004	6	..........a	-327.68
	7	0.32	-3.10288E-001	-3.61656E-001	-3.35972E-001	-5.52929E-009	-3.23066E-009	-2.29863E-009	-3.61000E-001	4.26039E-004	6	..........a	-327.68
	8	0.36	-3.08296E-001	-3.59682E-001	-3.33989E-001	-2.34638E-009	-2.20220E-009	-1.44185E-010	-3.59000E-001	4.33123E-004	6	..........a	-327.68
	9	0.4	-3.06323E-001	-3.57682E-001	-3.32003E-001	-1.82715E-009	-2.34888E-009	5.21733E-010	-3.57000E-001	4.34373E-004	6	..........a	-327.68
	10	0.44	-3.04287E-001	-3.55701E-001	-3.29994E-001	3.17290E-010	-1.47044E-009	1.78773E-009	-3.55000E-001	4.33956E-004	6	..........a	-327.68
	11	0.48	-3.02308E-001	-3.53673E-001	-3.27990E-001	2.43506E-009	-2.33721E-009	4.77227E-009	-3.53000E-001	4.36456E-004	6	..........a	-327.68
	12	0.52	-3.00311E-001	-3.51693E-001	-3.26002E-001	3.44019E-009	-2.30804E-009	5.74823E-009	-3.51000E-001	4.41873E-004	6	..........a	-327.68
	13	0.56	-2.98300E-001	-3.49671E-001	-3.23985E-001	6.81728E-009	-2.12302E-009	8.94030E-009	-3.49000E-001	4.28956E-004	6	..........a	-327.68
	14	0.6	-2.96284E-001	-3.47671E-001	-3.21977E-001	8.37915E-009	-2.68726E-009	1.10664E-008	-3.47000E-001	4.19789E-004	6	..........a	-327.68
	15	0.64	-2.94283E-001	-3.45663E-001	-3.19973E-001	1.08828E-008	-2.09802E-009	1.29808E-008	-3.45000E-001	4.23123E-004	6	..........a	-327.68
	16	0.68	-2.92310E-001	-3.43647E-001	-3.17979E-001	1.32731E-008	-3.33234E-009	1.66054E-008	-3.43000E-001	4.29789E-004	6	..........a	-327.68
	17	0.72	-2.90308E-001	-3.41666E-001	-3.15987E-001	1.49525E-008	-4.09494E-009	1.90474E-008	-3.41000E-001	4.25206E-004	6	..........a	-327.68
	18	0.76	-2.88279E-001	-3.39677E-001	-3.13978E-001	1.89438E-008	-4.43665E-009	2.33805E-008	-3.39000E-001	4.38539E-004	6	..........a	-327.68
	19	0.8	-2.86273E-001	-3.37641E-001	-3.11957E-001	2.12058E-008	-6.42023E-009	2.76260E-008	-3.37000E-001	4.28956E-004	6	..........a	-327.68
	20	0.84	-2.84298E-001	-3.35659E-001	-3.09978E-001	2.39736E-008	-6.08769E-009	3.00613E-008	-3.35000E-001	4.29373E-004	6	..........a	-327.68
	21	0.88	-2.82301E-001	-3.33663E-001	-3.07982E-001	2.74399E-008	-8.50800E-009	3.59479E-008	-3.33000E-001	4.28956E-004	6	..........a	-327.68
	22	0.92	-2.80269E-001	-3.31696E-001	-3.05983E-001	2.96760E-008	-9.25143E-009	3.89274E-008	-3.31000E-001	4.32289E-004	6	..........a	-327.68
	23	0.96	-2.78287E-001	-3.29655E-001	-3.03971E-001	3.50200E-008	-1.06174E-008	4.56375E-008	-3.29000E-001	4.28539E-004	6	..........a	-327.68
	24	1	-2.76296E-001	-3.27672E-001	-3.01984E-001	3.65527E-008	-1.27085E-008	4.92613E-008	-3.27000E-001	4.34373E-004	6	..........a	-327.68
	25	1.04	-2.74301E-001	-3.25662E-001	-2.99982E-001	4.04874E-008	-1.29711E-008	5.34585E-008	-3.25000E-001	4.21873E-004	6	..........a	-327.68
	26	1.08	-2.72281E-001	-3.23648E-001	-2.97965E-001	4.42370E-008	-1.60106E-008	6.02477E-008	-3.23000E-001	4.26456E-004	6	..........a	-327.68
	27	1.12	-2.70293E-001	-3.21648E-001	-2.95971E-001	4.71991E-008	-1.78075E-008	6.50066E-008	-3.21000E-001	4.29373E-004	6	..........a	-327.68
	28	1.16	-2.68339E-001	-3.19680E-001	-2.94009E-001	5.17847E-008	-1.96061E-008	7.13908E-008	-3.19000E-001	4.20206E-004	6	..........a	-327.68
	29	1.2	-2.66309E-001	-3.17660E-001	-2.91984E-001	5.43658E-008	-2.29565E-008	7.73223E-008	-3.17000E-001	4.26456E-004	6	..........a	-327.68
	30	1.24	-2.64295E-001	-3.15703E-001	-2.89999E-001	5.86347E-008	-2.40708E-008	8.27055E-008	-3.15000E-001	4.48539E-004	6	..........a	-327.68
	31	1.28	-2.62274E-001	-3.13641E-001	-2.87957E-001	6.14934E-008	-2.74612E-008	8.89546E-008	-3.13000E-001	4.38956E-004	6	..........a	-327.68
	32	1.32	-2.60291E-001	-3.11666E-001	-2.85978E-001	6.45471E-008	-2.94982E-008	9.40453E-008	-3.11000E-001	4.28956E-004	6	..........a	-327.68
	33	1.36	-2.58293E-001	-3.09654E-001	-2.83973E-001	6.88352E-008	-3.19260E-008	1.00761E-007	-3.09000E-001	4.44373E-004	6	..........a	-327.68
	34	1.4	-2.56278E-001	-3.07661E-001	-2.81970E-001	7.03362E-008	-3.53622E-008	1.05698E-007	-3.07000E-001	4.40623E-004	6	..........a	-327.68
	35	1.44	-2.54269E-001	-3.05666E-001	-2.79968E-001	7.32374E-008	-3.64007E-008	1.09638E-007	-3.05000E-001	4.43539E-004	6	..........a	-327.68
	36	1.48	-2.52287E-001	-3.03679E-001	-2.77983E-001	7.55385E-008	-4.04187E-008	1.15957E-007	-3.03000E-001	4.39789E-004	6	..........a	-327.68
	37	1.52	-2.50290E-001	-3.01657E-001	-2.75973E-001	7.73746E-008	-4.18906E-008	1.19265E-007	-3.01000E-001	4.27289E-004	6	..........a	-327.68
	38	1.56	-2.48293E-001	-2.99643E-001	-2.73968E-001	8.02783E-008	-4.39892E-008	1.24267E-007	-2.99000E-001	4.49789E-004	6	..........a	-327.68
	39	1.6	-2.46269E-001	-2.97649E-001	-2.71959E-001	7.97224E-008	-4.72346E-008	1.26957E-007	-2.97000E-001	4.37706E-004	6	..........a	-327.68
	40	1.64	-2.44300E-001	-2.95644E-001	-2.69972E-001	8.11484E-008	-4.72729E-008	1.28421E-007	-2.95000E-001	4.29373E-004	6	..........a	-327.68
	41	1.68	-2.42313E-001	-2.93661E-001	-2.67987E-001	8.23036E-008	-5.02083E-008	1.32512E-007	-2.93000E-001	4.20623E-004	6	..........a	-327.68
	42	1.72	-2.40287E-001	-2.91676E-001	-2.65982E-001	8.13984E-008	-5.11301E-008	1.32529E-007	-2.91000E-001	4.41456E-004	6	..........a	-327.68
	43	1.76	-2.38260E-001	-2.89601E-001	-2.63931E-001	8.20710E-008	-5.22336E-008	1.34305E-007	-2.89000E-001	4.35623E-004	6	..........a	-327.68
	44	1.8	-2.36275E-001	-2.87626E-001	-2.61950E-001	8.06167E-008	-5.38271E-008	1.34444E-007	-2.87000E-001	4.30623E-004	6	..........a	-327.68
	45	1.84	-2.34277E-001	-2.85638E-001	-2.59958E-001	7.92323E-008	-5.32687E-008	1.32501E-007	-2.85000E-001	4.29789E-004	6	..........a	-327.68
	46	1.88	-2.32276E-001	-2.83621E-001	-2.57948E-001	7.74521E-008	-5.46897E-008	1.32142E-007	-2.83000E-001	4.33956E-004	6	..........a	-327.68
	47	1.92	-2.30256E-001	-2.81618E-001	-2.55937E-001	7.51860E-008	-5.45122E-008	1.29698E-007	-2.81000E-001	4.22289E-004	6	..........a	-327.68
	48	1.96	-2.28268E-001	-2.79601E-001	-2.53935E-001	7.36350E-008	-5.42180E-008	1.27853E-007	-2.79000E-001	4.24789E-004	6	..........a	-327.68
	49	2	-2.26293E-001	-2.77654E-001	-2.51973E-001	7.12013E-008	-5.45647E-008	1.25766E-007	-2.77000E-001	4.28539E-004	6	..........a	-327.68
	50	2.04	-2.24275E-001	-2.75634E-001	-2.49954E-001	6.84443E-008	-5.22302E-008	1.20675E-007	-2.75000E-001	4.18956E-004	6	..........a	-327.68
	51	2.08	-2.22288E-001	-2.73621E-001	-2.47955E-001	6.53797E-008	-5.21202E-008	1.17500E-007	-2.73000E-001	4.35206E-004	6	..........a	-327.68
	52	2.12	-2.20291E-001	-2.71617E-001	-2.45954E-001	6.16101E-008	-5.10926E-008	1.12703E-007	-2.71000E-001	4.23956E-004	6	..........a	-327.68
	53	2.16	-2.18281E-001	-2.69609E-001	-2.43945E-001	5.97157E-008	-4.88556E-008	1.08571E-007	-2.69000E-001	4.35623E-004	6	..........a	-327.68
	54	2.2	-2.16284E-001	-2.67633E-001	-2.41958E-001	5.52551E-008	-4.83706E-008	1.03626E-007	-2.67000E-001	4.35623E-004	6	..........a	-327.68
	55	2.24	-2.14275E-001	-2.65597E-001	-2.39936E-001	5.21439E-008	-4.53335E-008	9.74774E-008	-2.65000E-001	4.38123E-004	6	..........a	-327.68
	56	2.28	-2.12274E-001	-2.63608E-001	-2.37941E-001	4.84051E-008	-4.33824E-008	9.17875E-008	-2.63000E-001	4.32706E-004	6	..........a	-327.68
	57	2.32	-2.10301E-001	-2.61596E-001	-2.35948E-001	4.47429E-008	-4.14664E-008	8.62093E-008	-2.61000E-001	4.30206E-004	6	..........a	-327.68
	58	2.36	-2.08285E-001	-2.59575E-001	-2.33930E-001	4.25610E-008	-3.92836E-008	8.18446E-008	-2.59000E-001	4.35206E-004	6	..........a	-327.68
	59	2.4	-2.06283E-001	-2.57584E-001	-2.31934E-001	3.80804E-008	-3.70958E-008	7.51762E-008	-2.57000E-001	4.31039E-004	6	..........a	-327.68
	60	2.44	-2.04322E-001	-2.55594E-001	-2.29958E-001	3.50642E-008	-3.38954E-008	6.89596E-008	-2.55000E-001	4.31873E-004	6	..........a	-327.68
	61	2.48	-2.02320E-001	-2.53612E-001	-2.27966E-001	3.21455E-008	-3.22885E-008	6.44340E-008	-2.53000E-001	4.27289E-004	6	..........a	-327.68
	62	2.52	-2.00307E-001	-2.51601E-001	-2.25954E-001	2.84234E-008	-2.89606E-008	5.73840E-008	-2.51000E-001	4.42706E-004	6	..........a	-327.68
	63	2.56	-1.98322E-001	-2.49607E-001	-2.23964E-001	2.60422E-008	-2.68120E-008	5.28542E-008	-2.49000E-001	4.29373E-004	6	..........a	-327.68
	64	2.6	-1.96329E-001	-2.47598E-001	-2.21964E-001	2.25218E-008	-2.41792E-008	4.67009E-008	-2.47000E-001	4.40206E-004	6	..........a	-327.68
	65	2.64	-1.94328E-001	-2.45614E-001	-2.19971E-001	2.02515E-008	-2.05770E-008	4.08285E-008	-2.45000E-001	4.36456E-004	6	..........a	-327.68
	66	2.68	-1.92302E-001	-2.43579E-001	-2.17941E-001	1.77928E-008	-1.91427E-008	3.69355E-008	-2.43000E-001	4.34373E-004	6	..........a	-327.68
	67	2.72	-1.90312E-001	-2.41560E-001	-2.15936E-001	1.44049E-008	-1.58239E-008	3.02288E-008	-2.41000E-001	4.37289E-004	6	..........a	-327.68
	68	2.76	-1.88363E-001	-2.39591E-001	-2.13977E-001	1.32073E-008	-1.32011E-008	2.64084E-008	-2.39000E-001	4.38956E-004	6	..........a	-327.68
	69	2.8	-1.86345E-001	-2.37599E-001	-2.11972E-001	1.07086E-008	-1.16226E-008	2.23312E-008	-2.37000E-001	4.19789E-004	6	..........a	-327.68
	70	2.84	-1.84309E-001	-2.35564E-001	-2.09937E-001	9.38094E-009	-8.48716E-009	1.78681E-008	-2.35000E-001	4.33539E-004	6	..........a	-327.68
	71	2.88	-1.82326E-001	-2.33573E-001	-2.07949E-001	7.43903E-009	-6.68027E-009	1.41193E-008	-2.33000E-001	4.30623E-004	6	..........a	-327.68
	72	2.92	-1.80354E-001	-2.31587E-001	-2.05971E-001	4.90204E-009	-4.58250E-009	9.48454E-009	-2.31000E-001	4.39789E-004	6	..........a	-327.68
	73	2.96	-1.78363E-001	-2.29623E-001	-2.03993E-001	4.32030E-009	-2.72060E-009	7.04089E-009	-2.29000E-001	4.40623E-004	6	..........a	-327.68
	74	3	-1.76348E-001	-2.27603E-001	-2.01975E-001	2.37089E-009	-8.20354E-010	3.19124E-009	-2.27000E-001	4.22706E-004	6	..........a	-327.68
	75	3.04	-1.74351E-001	-2.25602E-001	-1.99977E-001	1.47744E-009	2.36255E-009	-8.85112E-010	-2.25000E-001	4.27289E-004	6	..........a	-327.68
	76	3.08	-1.72359E-001	-2.23579E-001	-1.97969E-001	-1.80273E-010	3.53937E-009	-3.71964E-009	-2.23000E-001	4.25623E-004	6	..........a	-327.68
	77	3.12	-1.70359E-001	-2.21590E-001	-1.95974E-001	-1.97383E-009	5.55296E-009	-7.52679E-009	-2.21000E-001	4.24789E-004	6	..........a	-327.68
	78	3.16	-1.68352E-001	-2.19580E-001	-1.93966E-001	-1.66630E-009	7.16733E-009	-8.83362E-009	-2.19000E-001	4.28956E-004	6	..........a	-327.68
	79	3.2	-1.66336E-001	-2.17593E-001	-1.91965E-001	-3.66155E-009	8.04494E-009	-1.17065E-008	-2.17000E-001	4.26873E-004	6	..........a	-327.68
	80	3.24	-1.64370E-001	-2.15572E-001	-1.89971E-001	-3.54820E-009	1.10378E-008	-1.45860E-008	-2.15000E-001	4.31873E-004	6	..........a	-327.68
	81	3.28	-1.62374E-001	-2.13585E-001	-1.87980E-001	-4.69501E-009	1.15479E-008	-1.62429E-008	-2.13000E-001	4.33539E-004	6	..........a	-327.68
	82	3.32	-1.60335E-001	-2.11565E-001	-1.85950E-001	-5.95767E-009	1.32848E-008	-1.92424E-008	-2.11000E-001	4.30206E-004	6	..........a	-327.68
	83	3.36	-1.58357E-001	-2.09566E-001	-1.83962E-001	-5.62180E-009	1.47150E-008	-2.03368E-008	-2.09000E-001	4.27289E-004	6	..........a	-327.68
	84	3.4	-1.56380E-001	-2.07564E-001	-1.81972E-001	-6.77861E-009	1.53492E-008	-2.21278E-008	-2.07000E-001	4.37706E-004	6	..........a	-327.68
	85	3.44	-1.54377E-001	-2.05583E-001	-1.79980E-001	-6.54942E-009	1.76895E-008	-2.42389E-008	-2.05000E-001	4.38956E-004	6	..........a	-327.68
	86	3.48	-1.52374E-001	-2.03595E-001	-1.77984E-001	-7.11782E-009	1.74745E-008	-2.45923E-008	-2.03000E-001	4.28123E-004	6	..........a	-327.68
	87	3.52	-1.50379E-001	-2.01595E-001	-1.75987E-001	-8.18879E-009	1.91922E-008	-2.73810E-008	-2.01000E-001	4.21039E-004	6	..........a	-327.68
	88	3.56	-1.48384E-001	-1.99592E-001	-1.73988E-001	-7.24450E-009	1.95347E-008	-2.67792E-008	-1.99000E-001	4.36039E-004	6	..........a	-327.68
	89	3.6	-1.46375E-001	-1.97596E-001	-1.71985E-001	-8.65302E-009	2.07657E-008	-2.94187E-008	-1.97000E-001	4.25623E-004	6	..........a	-327.68
	90	3.64	-1.44365E-001	-1.95571E-001	-1.69968E-001	-7.90626E-009	2.27526E-008	-3.06589E-008	-1.95000E-001	4.33956E-004	6	..........a	-327.68
	91	3.68	-1.42365E-001	-1.93578E-001	-1.67971E-001	-8.83304E-009	2.24826E-008	-3.13157E-008	-1.93000E-001	4.30623E-004	6	..........a	-327.68
	92	3.72	-1.40397E-001	-1.91609E-001	-1.66003E-001	-9.13058E-009	2.40278E-008	-3.31584E-008	-1.91000E-001	4.31039E-004	6	..........a	-327.68
	93	3.76	-1.38398E-001	-1.89605E-001	-1.64001E-001	-8.37465E-009	2.41078E-008	-3.24825E-008	-1.89000E-001	4.24789E-004	6	..........a	-327.68
	94	3.8	-1.36388E-001	-1.87599E-001	-1.61994E-001	-9.50396E-009	2.42820E-008	-3.37860E-008	-1.87000E-001	4.31039E-004	6	..........a	-327.68
	95	3.84	-1.34363E-001	-1.85561E-001	-1.59962E-001	-8.82721E-009	2.64723E-008	-3.52995E-008	-1.85000E-001	4.31039E-004	6	..........a	-327.68
	96	3.88	-1.32373E-001	-1.83555E-001	-1.57964E-001	-9.37228E-009	2.61689E-008	-3.55412E-008	-1.83000E-001	4.28539E-004	6	..........a	-327.68
	97	3.92	-1.30384E-001	-1.81591E-001	-1.55988E-001	-9.84400E-009	2.69673E-008	-3.68114E-008	-1.81000E-001	4.28956E-004	6	..........a	-327.68
	98	3.96	-1.28367E-001	-1.79577E-001	-1.53972E-001	-8.50383E-009	2.71132E-008	-3.56170E-008	-1.79000E-001	4.34789E-004	6	..........a	-327.68
	99	4	-1.26375E-001	-1.77580E-001	-1.51977E-001	-9.49062E-009	2.70507E-008	-3.65413E-008	-1.77000E-001	4.26873E-004	6	..........a	-327.68
	100	4.04	-1.24400E-001	-1.75590E-001	-1.49995E-001	-9.19059E-009	2.91293E-008	-3.83199E-008	-1.75000E-001	4.26039E-004	6	..........a	-327.68
