EXPLAIN
TAG	SQUARE_WAVE
TITLE	LABEL	Square Wave Voltammetry	Test Identifier
DATE	LABEL	8/25/2020	Date
TIME	LABEL	14:41:37	Time
NOTES	NOTES	1	Notes...
	
PSTAT	PSTAT	REF600-24079	Potentiostat
VINIT	QUANT	-3.50000E-001	Initial E (V)
VFINAL	QUANT	-1.50000E-001	Final E (V)
STEPSIZE	QUANT	2.00000E+000	Step Size (mV)
TIMERRES	QUANT	3.33340E-005	&Timer Resolution
FREQUENCY	QUANT	1.00000E+002	Frequency (Hz)
PULSESIZE	QUANT	2.50000E+001	Pulse Size E (mV)
PULSEON	QUANT	1.00000E-002	Pulse &Time (s)
NOISEREJECT	TOGGLE	F	Noise Rejection
AREA	QUANT	2.00000E-002	Sample Area (cm^2)
IMODE	SELECTOR	1	I/E Range Mode
IRANGE	QUANT	1.00000E-002	Max Current (mA)
EQDELAY	IQUANT	10	Equil. Time (s)
IRCOMP	SELECTOR	0	IRComp
PFCOR	QUANT	5.00000E+001	PF Corr. (ohm)
CYCLES	IQUANT	101	C&ycles (#)
ELECTRODETYPE	SELECTOR	0	Electrode Type
STRIPPING	TOGGLE	F	Used for Stripping
POLARITY	TOGGLE	F	Signal Polarity
LINEFREQ	IQUANT	60	Line Frequency (Hz)
INTPERIOD	QUANT	3.3334E-005	Integration Period (s)
SEQUENCER	TOGGLE	TRUE	Run as Sequence
PSTATMODEL	IQUANT	4	Pstat Model
PSTATSECTION	LABEL	REF600-24079	Pstat Section
PSTATSERIALNO	LABEL	24079	Pstat Serial Number
CTRLMODE	IQUANT	1	Control Mode
ELECTROMETER	IQUANT	0	RE=0 or CS=1
IESTAB	IQUANT	2	I/E Stability
CASPEED	IQUANT	6	Control Amp Speed
CONVENTION	IQUANT	1	Current Convention
ICHRANGE	IQUANT	2	Ich Range
ICHRANGEMODE	TOGGLE	F	Ich Auto Range
ICHOFFSETENABLE	TOGGLE	F	Ich Offset Enable
ICHOFFSET	QUANT	0	Ich Offset (V)
ICHFILTER	IQUANT	2	Ich Filter
VCHRANGE	IQUANT	2	Vch Range
VCHRANGEMODE	TOGGLE	F	Vch Auto Range
VCHOFFSETENABLE	TOGGLE	F	Vch Offset Enable
VCHOFFSET	QUANT	0	Vch Offset (V)
VCHFILTER	IQUANT	2	Vch Filter
ACHRANGE	IQUANT	2	Ach Range
ACHOFFSETENABLE	TOGGLE	F	Ach Offset Enable
ACHOFFSET	QUANT	0	Ach Offset (V)
ACHFILTER	IQUANT	1	Ach Filter
IERANGELOWERLIMIT	IQUANT	1	I/E Range Lower Limit
IERANGEMODE	TOGGLE	F	I/E AutoRange
IERANGE	IQUANT	7	I/E Range
POSFEEDENABLE	TOGGLE	F	Positive Feedback IR Comp
POSFEEDRESISTANCE	QUANT	0	Positive Feedback Resistance (ohm)
ACHSELECT	IQUANT	0	Ach Select
SENSECABLEID	IQUANT	13	Sense Cable ID
PWRCABLEID	IQUANT	13	Power Cable ID
DCCALDATE	LABEL	6/30/2020	DC Calibration Date
ACCALDATE	LABEL	6/30/2020	AC Calibration Date
THERMOSELECT	IQUANT	1	Thermo Select
FRAMEWORKVERSION	LABEL	7.8.2	Framework Version
INSTRUMENTVERSION	LABEL	4.40	Instrument Version
CURVE	TABLE	101
	Pt	T	Vfwd	Vrev	Vstep	Ifwd	Irev	Idif	Sig	Ach	IERange	Over	Temp
	#	s	V	V	V	A	A	A	V	V	#	bits	deg C
	0	0.01	-3.25123E-001	-3.74153E-001	-3.49638E-001	4.96273E-009	-2.42171E-007	2.47134E-007	-3.75000E-001	4.49373E-004	7	..........a	-327.68
	1	0.02	-3.23911E-001	-3.72161E-001	-3.48036E-001	1.74853E-007	-2.09466E-007	3.84319E-007	-3.73000E-001	4.14373E-004	7	..........a	-327.68
	2	0.03	-3.21891E-001	-3.70188E-001	-3.46039E-001	1.90588E-007	-2.00599E-007	3.91187E-007	-3.71000E-001	4.26039E-004	7	..........a	-327.68
	3	0.04	-3.19888E-001	-3.68113E-001	-3.44000E-001	1.94489E-007	-1.94398E-007	3.88886E-007	-3.69000E-001	4.14373E-004	7	..........a	-327.68
	4	0.05	-3.17863E-001	-3.66168E-001	-3.42015E-001	1.96856E-007	-1.90797E-007	3.87653E-007	-3.67000E-001	3.99373E-004	7	..........a	-327.68
	5	0.06	-3.15934E-001	-3.64148E-001	-3.40041E-001	2.00123E-007	-1.87330E-007	3.87453E-007	-3.65000E-001	4.27706E-004	7	..........a	-327.68
	6	0.07	-3.13859E-001	-3.62168E-001	-3.38013E-001	1.99156E-007	-1.83730E-007	3.82886E-007	-3.63000E-001	4.21039E-004	7	..........a	-327.68
	7	0.08	-3.11906E-001	-3.60146E-001	-3.36026E-001	2.05823E-007	-1.87764E-007	3.93587E-007	-3.61000E-001	4.22706E-004	7	..........a	-327.68
	8	0.09	-3.09878E-001	-3.58174E-001	-3.34026E-001	2.06690E-007	-1.86530E-007	3.93220E-007	-3.59000E-001	4.37706E-004	7	..........a	-327.68
	9	0.1	-3.07904E-001	-3.56168E-001	-3.32036E-001	2.07824E-007	-1.87864E-007	3.95687E-007	-3.57000E-001	4.04373E-004	7	..........a	-327.68
	10	0.11	-3.05918E-001	-3.54199E-001	-3.30058E-001	2.08057E-007	-1.87597E-007	3.95654E-007	-3.55000E-001	4.24373E-004	7	..........a	-327.68
	11	0.12	-3.03893E-001	-3.52174E-001	-3.28033E-001	2.11491E-007	-1.83496E-007	3.94987E-007	-3.53000E-001	4.16039E-004	7	..........a	-327.68
	12	0.13	-3.01903E-001	-3.50154E-001	-3.26028E-001	2.11224E-007	-1.85063E-007	3.96287E-007	-3.51000E-001	4.12706E-004	7	..........a	-327.68
	13	0.14	-2.99931E-001	-3.48193E-001	-3.24062E-001	2.14191E-007	-1.85463E-007	3.99654E-007	-3.49000E-001	4.37706E-004	7	..........a	-327.68
	14	0.15	-2.97884E-001	-3.46168E-001	-3.22026E-001	2.15725E-007	-1.86330E-007	4.02055E-007	-3.47000E-001	4.21039E-004	7	..........a	-327.68
	15	0.16	-2.95906E-001	-3.44119E-001	-3.20013E-001	2.16058E-007	-1.88264E-007	4.04322E-007	-3.45000E-001	4.39373E-004	7	..........a	-327.68
	16	0.17	-2.93861E-001	-3.42153E-001	-3.18007E-001	2.17158E-007	-1.84363E-007	4.01521E-007	-3.43000E-001	4.26039E-004	7	..........a	-327.68
	17	0.18	-2.91916E-001	-3.40148E-001	-3.16032E-001	2.19359E-007	-1.86563E-007	4.05922E-007	-3.41000E-001	4.39373E-004	7	..........a	-327.68
	18	0.19	-2.89859E-001	-3.38166E-001	-3.14013E-001	2.18625E-007	-1.85197E-007	4.03822E-007	-3.39000E-001	4.51039E-004	7	..........a	-327.68
	19	0.2	-2.87873E-001	-3.36136E-001	-3.12004E-001	2.20392E-007	-1.86330E-007	4.06722E-007	-3.37000E-001	4.16039E-004	7	..........a	-327.68
	20	0.21	-2.85849E-001	-3.34126E-001	-3.09988E-001	2.19459E-007	-1.88097E-007	4.07556E-007	-3.35000E-001	4.17706E-004	7	..........a	-327.68
	21	0.22	-2.83884E-001	-3.32174E-001	-3.08029E-001	2.19959E-007	-1.85797E-007	4.05755E-007	-3.33000E-001	4.26039E-004	7	..........a	-327.68
	22	0.23	-2.81884E-001	-3.30194E-001	-3.06039E-001	2.23693E-007	-1.92364E-007	4.16057E-007	-3.31000E-001	4.27706E-004	7	..........a	-327.68
	23	0.24	-2.79851E-001	-3.28161E-001	-3.04006E-001	2.25993E-007	-1.92764E-007	4.18757E-007	-3.29000E-001	4.09373E-004	7	..........a	-327.68
	24	0.25	-2.77883E-001	-3.26161E-001	-3.02022E-001	2.27493E-007	-1.94998E-007	4.22491E-007	-3.27000E-001	4.09373E-004	7	..........a	-327.68
	25	0.26	-2.75889E-001	-3.24191E-001	-3.00040E-001	2.30160E-007	-1.96365E-007	4.26525E-007	-3.25000E-001	4.11039E-004	7	..........a	-327.68
	26	0.27	-2.73884E-001	-3.22179E-001	-2.98032E-001	2.32794E-007	-1.94898E-007	4.27692E-007	-3.23000E-001	3.99373E-004	7	..........a	-327.68
	27	0.28	-2.71859E-001	-3.20188E-001	-2.96023E-001	2.34061E-007	-2.00932E-007	4.34993E-007	-3.21000E-001	4.07706E-004	7	..........a	-327.68
	28	0.29	-2.69853E-001	-3.18099E-001	-2.93976E-001	2.36528E-007	-1.99432E-007	4.35959E-007	-3.19000E-001	4.16039E-004	7	..........a	-327.68
	29	0.3	-2.67886E-001	-3.16193E-001	-2.92039E-001	2.38061E-007	-2.03132E-007	4.41193E-007	-3.17000E-001	4.14373E-004	7	..........a	-327.68
	30	0.31	-2.65856E-001	-3.14186E-001	-2.90021E-001	2.38895E-007	-2.01865E-007	4.40760E-007	-3.15000E-001	4.14373E-004	7	..........a	-327.68
	31	0.32	-2.63843E-001	-3.12163E-001	-2.88003E-001	2.41328E-007	-2.04332E-007	4.45661E-007	-3.13000E-001	3.99373E-004	7	..........a	-327.68
	32	0.33	-2.61841E-001	-3.10159E-001	-2.86000E-001	2.46962E-007	-2.09366E-007	4.56329E-007	-3.11000E-001	4.11039E-004	7	..........a	-327.68
	33	0.34	-2.59843E-001	-3.08186E-001	-2.84014E-001	2.47929E-007	-2.11100E-007	4.59029E-007	-3.09000E-001	4.19373E-004	7	..........a	-327.68
	34	0.35	-2.57829E-001	-3.06239E-001	-2.82034E-001	2.52730E-007	-2.13867E-007	4.66597E-007	-3.07000E-001	4.04373E-004	7	..........a	-327.68
	35	0.36	-2.55818E-001	-3.04198E-001	-2.80008E-001	2.53430E-007	-2.15301E-007	4.68731E-007	-3.05000E-001	4.26039E-004	7	..........a	-327.68
	36	0.37	-2.53858E-001	-3.02193E-001	-2.78025E-001	2.54463E-007	-2.18301E-007	4.72764E-007	-3.03000E-001	4.14373E-004	7	..........a	-327.68
	37	0.38	-2.51826E-001	-3.00224E-001	-2.76025E-001	2.61298E-007	-2.19168E-007	4.80465E-007	-3.01000E-001	3.97706E-004	7	..........a	-327.68
	38	0.39	-2.49841E-001	-2.98199E-001	-2.74020E-001	2.63465E-007	-2.24769E-007	4.88233E-007	-2.99000E-001	4.32706E-004	7	..........a	-327.68
	39	0.4	-2.47831E-001	-2.96208E-001	-2.72019E-001	2.65698E-007	-2.28236E-007	4.93934E-007	-2.97000E-001	4.31039E-004	7	..........a	-327.68
	40	0.41	-2.45833E-001	-2.94178E-001	-2.70005E-001	2.69966E-007	-2.30203E-007	5.00168E-007	-2.95000E-001	4.29373E-004	7	..........a	-327.68
	41	0.42	-2.43831E-001	-2.92249E-001	-2.68040E-001	2.71966E-007	-2.30703E-007	5.02669E-007	-2.93000E-001	4.16039E-004	7	..........a	-327.68
	42	0.43	-2.41811E-001	-2.90251E-001	-2.66031E-001	2.73199E-007	-2.32736E-007	5.05936E-007	-2.91000E-001	4.34373E-004	7	..........a	-327.68
	43	0.44	-2.39736E-001	-2.88183E-001	-2.63959E-001	2.74866E-007	-2.32336E-007	5.07202E-007	-2.89000E-001	4.06039E-004	7	..........a	-327.68
	44	0.45	-2.37843E-001	-2.86208E-001	-2.62025E-001	2.77433E-007	-2.34070E-007	5.11503E-007	-2.87000E-001	4.24373E-004	7	..........a	-327.68
	45	0.46	-2.35826E-001	-2.84233E-001	-2.60029E-001	2.77233E-007	-2.34770E-007	5.12003E-007	-2.85000E-001	4.14373E-004	7	..........a	-327.68
	46	0.47	-2.33769E-001	-2.82234E-001	-2.58002E-001	2.81100E-007	-2.37337E-007	5.18437E-007	-2.83000E-001	4.24373E-004	7	..........a	-327.68
	47	0.48	-2.31774E-001	-2.80221E-001	-2.55998E-001	2.82801E-007	-2.38004E-007	5.20804E-007	-2.81000E-001	4.21039E-004	7	..........a	-327.68
	48	0.49	-2.29843E-001	-2.78231E-001	-2.54037E-001	2.85068E-007	-2.40104E-007	5.25172E-007	-2.79000E-001	4.21039E-004	7	..........a	-327.68
	49	0.5	-2.27818E-001	-2.76248E-001	-2.52033E-001	2.86068E-007	-2.42071E-007	5.28139E-007	-2.77000E-001	4.46039E-004	7	..........a	-327.68
	50	0.51	-2.25809E-001	-2.74234E-001	-2.50022E-001	2.84668E-007	-2.40204E-007	5.24872E-007	-2.75000E-001	4.19373E-004	7	..........a	-327.68
	51	0.52	-2.23796E-001	-2.72243E-001	-2.48019E-001	2.83901E-007	-2.38570E-007	5.22471E-007	-2.73000E-001	4.22706E-004	7	..........a	-327.68
	52	0.53	-2.21828E-001	-2.70234E-001	-2.46031E-001	2.82934E-007	-2.39004E-007	5.21938E-007	-2.71000E-001	4.27706E-004	7	..........a	-327.68
	53	0.54	-2.19796E-001	-2.68274E-001	-2.44035E-001	2.86368E-007	-2.37304E-007	5.23671E-007	-2.69000E-001	3.99373E-004	7	..........a	-327.68
	54	0.55	-2.17799E-001	-2.66246E-001	-2.42023E-001	2.84968E-007	-2.37337E-007	5.22305E-007	-2.67000E-001	4.44373E-004	7	..........a	-327.68
	55	0.56	-2.15708E-001	-2.64214E-001	-2.39961E-001	2.84834E-007	-2.36103E-007	5.20938E-007	-2.65000E-001	4.22706E-004	7	..........a	-327.68
	56	0.57	-2.13798E-001	-2.62189E-001	-2.37993E-001	2.85501E-007	-2.33870E-007	5.19371E-007	-2.63000E-001	4.32706E-004	7	..........a	-327.68
	57	0.58	-2.11803E-001	-2.60261E-001	-2.36032E-001	2.84234E-007	-2.32836E-007	5.17070E-007	-2.61000E-001	4.21039E-004	7	..........a	-327.68
	58	0.59	-2.09764E-001	-2.58253E-001	-2.34008E-001	2.82167E-007	-2.29469E-007	5.11636E-007	-2.59000E-001	4.22706E-004	7	..........a	-327.68
	59	0.6	-2.07773E-001	-2.56221E-001	-2.31997E-001	2.79200E-007	-2.29203E-007	5.08403E-007	-2.57000E-001	4.17706E-004	7	..........a	-327.68
	60	0.61	-2.05814E-001	-2.54214E-001	-2.30014E-001	2.79267E-007	-2.22468E-007	5.01735E-007	-2.55000E-001	4.29373E-004	7	..........a	-327.68
	61	0.62	-2.03854E-001	-2.52259E-001	-2.28057E-001	2.77500E-007	-2.20535E-007	4.98035E-007	-2.53000E-001	4.32706E-004	7	..........a	-327.68
	62	0.63	-2.01801E-001	-2.50258E-001	-2.26029E-001	2.75366E-007	-2.22168E-007	4.97534E-007	-2.51000E-001	4.12706E-004	7	..........a	-327.68
	63	0.64	-1.99823E-001	-2.48229E-001	-2.24026E-001	2.79000E-007	-2.17734E-007	4.96734E-007	-2.49000E-001	4.51039E-004	7	..........a	-327.68
	64	0.65	-1.97821E-001	-2.46236E-001	-2.22028E-001	2.77300E-007	-2.17968E-007	4.95267E-007	-2.47000E-001	4.24373E-004	7	..........a	-327.68
	65	0.66	-1.95819E-001	-2.44256E-001	-2.20038E-001	2.77066E-007	-2.15101E-007	4.92167E-007	-2.45000E-001	4.11039E-004	7	..........a	-327.68
	66	0.67	-1.93809E-001	-2.42264E-001	-2.18037E-001	2.74533E-007	-2.11767E-007	4.86300E-007	-2.43000E-001	4.24373E-004	7	..........a	-327.68
	67	0.68	-1.91818E-001	-2.40239E-001	-2.16028E-001	2.77366E-007	-2.10300E-007	4.87666E-007	-2.41000E-001	3.96039E-004	7	..........a	-327.68
	68	0.69	-1.89834E-001	-2.38228E-001	-2.14031E-001	2.74066E-007	-2.04266E-007	4.78332E-007	-2.39000E-001	4.21039E-004	7	..........a	-327.68
	69	0.7	-1.87834E-001	-2.36248E-001	-2.12041E-001	2.70566E-007	-2.03232E-007	4.73798E-007	-2.37000E-001	4.24373E-004	7	..........a	-327.68
	70	0.71	-1.85823E-001	-2.34214E-001	-2.10018E-001	2.70466E-007	-1.98998E-007	4.69464E-007	-2.35000E-001	4.21039E-004	7	..........a	-327.68
	71	0.72	-1.83791E-001	-2.32229E-001	-2.08010E-001	2.70932E-007	-1.95798E-007	4.66730E-007	-2.33000E-001	4.11039E-004	7	..........a	-327.68
	72	0.73	-1.81816E-001	-2.30214E-001	-2.06015E-001	2.69832E-007	-1.97198E-007	4.67030E-007	-2.31000E-001	4.11039E-004	7	..........a	-327.68
	73	0.74	-1.79828E-001	-2.28254E-001	-2.04041E-001	2.70032E-007	-1.94198E-007	4.64230E-007	-2.29000E-001	4.11039E-004	7	..........a	-327.68
	74	0.75	-1.77809E-001	-2.26251E-001	-2.02030E-001	2.70666E-007	-1.91664E-007	4.62330E-007	-2.27000E-001	4.12706E-004	7	..........a	-327.68
	75	0.76	-1.75799E-001	-2.24259E-001	-2.00029E-001	2.69132E-007	-1.88497E-007	4.57629E-007	-2.25000E-001	4.22706E-004	7	..........a	-327.68
	76	0.77	-1.73846E-001	-2.22229E-001	-1.98038E-001	2.68199E-007	-1.85997E-007	4.54195E-007	-2.23000E-001	4.36039E-004	7	..........a	-327.68
	77	0.78	-1.71828E-001	-2.20236E-001	-1.96032E-001	2.69699E-007	-1.87764E-007	4.57462E-007	-2.21000E-001	4.06039E-004	7	..........a	-327.68
	78	0.79	-1.69833E-001	-2.18233E-001	-1.94033E-001	2.66798E-007	-1.84463E-007	4.51261E-007	-2.19000E-001	4.24373E-004	7	..........a	-327.68
	79	0.8	-1.67836E-001	-2.16173E-001	-1.92004E-001	2.69432E-007	-1.84263E-007	4.53695E-007	-2.17000E-001	4.11039E-004	7	..........a	-327.68
	80	0.81	-1.65814E-001	-2.14174E-001	-1.89994E-001	2.69199E-007	-1.82163E-007	4.51362E-007	-2.15000E-001	4.22706E-004	7	..........a	-327.68
	81	0.82	-1.63798E-001	-2.12246E-001	-1.88022E-001	2.67832E-007	-1.82296E-007	4.50128E-007	-2.13000E-001	4.29373E-004	7	..........a	-327.68
	82	0.83	-1.61796E-001	-2.10248E-001	-1.86022E-001	2.67298E-007	-1.80896E-007	4.48194E-007	-2.11000E-001	4.44373E-004	7	..........a	-327.68
	83	0.84	-1.59788E-001	-2.08254E-001	-1.84021E-001	2.66632E-007	-1.77896E-007	4.44527E-007	-2.09000E-001	4.29373E-004	7	..........a	-327.68
	84	0.85	-1.57809E-001	-2.06239E-001	-1.82024E-001	2.66465E-007	-1.76062E-007	4.42527E-007	-2.07000E-001	4.29373E-004	7	..........a	-327.68
	85	0.86	-1.55849E-001	-2.04263E-001	-1.80056E-001	2.63998E-007	-1.73895E-007	4.37893E-007	-2.05000E-001	4.37706E-004	7	..........a	-327.68
	86	0.87	-1.53773E-001	-2.02276E-001	-1.78024E-001	2.64831E-007	-1.74628E-007	4.39460E-007	-2.03000E-001	4.29373E-004	7	..........a	-327.68
	87	0.88	-1.51799E-001	-2.00259E-001	-1.76029E-001	2.63865E-007	-1.74028E-007	4.37893E-007	-2.01000E-001	4.41039E-004	7	..........a	-327.68
	88	0.89	-1.49823E-001	-1.98243E-001	-1.74033E-001	2.65965E-007	-1.74895E-007	4.40860E-007	-1.99000E-001	4.21039E-004	7	..........a	-327.68
	89	0.9	-1.47816E-001	-1.96256E-001	-1.72036E-001	2.68199E-007	-1.75829E-007	4.44027E-007	-1.97000E-001	4.26039E-004	7	..........a	-327.68
	90	0.91	-1.45809E-001	-1.94248E-001	-1.70028E-001	2.66065E-007	-1.73795E-007	4.39860E-007	-1.95000E-001	4.39373E-004	7	..........a	-327.68
	91	0.92	-1.43801E-001	-1.92223E-001	-1.68012E-001	2.64931E-007	-1.74262E-007	4.39193E-007	-1.93000E-001	4.32706E-004	7	..........a	-327.68
	92	0.93	-1.41808E-001	-1.90174E-001	-1.65991E-001	2.66165E-007	-1.72561E-007	4.38726E-007	-1.91000E-001	4.12706E-004	7	..........a	-327.68
	93	0.94	-1.39781E-001	-1.88233E-001	-1.64007E-001	2.65965E-007	-1.74095E-007	4.40060E-007	-1.89000E-001	4.24373E-004	7	..........a	-327.68
	94	0.95	-1.37793E-001	-1.86254E-001	-1.62023E-001	2.66398E-007	-1.75228E-007	4.41627E-007	-1.87000E-001	4.21039E-004	7	..........a	-327.68
	95	0.96	-1.35764E-001	-1.84206E-001	-1.59985E-001	2.69665E-007	-1.74195E-007	4.43861E-007	-1.85000E-001	4.12706E-004	7	..........a	-327.68
	96	0.97	-1.33788E-001	-1.82223E-001	-1.58005E-001	2.66498E-007	-1.72595E-007	4.39093E-007	-1.83000E-001	4.04373E-004	7	..........a	-327.68
	97	0.98	-1.31823E-001	-1.80264E-001	-1.56043E-001	2.66198E-007	-1.74328E-007	4.40527E-007	-1.81000E-001	4.17706E-004	7	..........a	-327.68
	98	0.99	-1.29773E-001	-1.78274E-001	-1.54023E-001	2.66398E-007	-1.71461E-007	4.37860E-007	-1.79000E-001	4.24373E-004	7	..........a	-327.68
	99	1	-1.27769E-001	-1.76241E-001	-1.52005E-001	2.64898E-007	-1.71161E-007	4.36059E-007	-1.77000E-001	4.02706E-004	7	..........a	-327.68
	100	1.01	-1.25764E-001	-1.74259E-001	-1.50012E-001	2.65132E-007	-1.70395E-007	4.35526E-007	-1.75000E-001	4.14373E-004	7	..........a	-327.68
