EXPLAIN
TAG	SQUARE_WAVE
TITLE	LABEL	Square Wave Voltammetry	Test Identifier
DATE	LABEL	8/31/2020	Date
TIME	LABEL	14:28:58	Time
NOTES	NOTES	1	Notes...
	
PSTAT	PSTAT	REF600-24079	Potentiostat
VINIT	QUANT	-3.50000E-001	Initial E (V)
VFINAL	QUANT	-1.50000E-001	Final E (V)
STEPSIZE	QUANT	2.00000E+000	Step Size (mV)
TIMERRES	QUANT	3.33340E-005	&Timer Resolution
FREQUENCY	QUANT	1.00000E+001	Frequency (Hz)
PULSESIZE	QUANT	2.50000E+001	Pulse Size E (mV)
PULSEON	QUANT	1.00000E-001	Pulse &Time (s)
NOISEREJECT	TOGGLE	F	Noise Rejection
AREA	QUANT	2.00000E-002	Sample Area (cm^2)
IMODE	SELECTOR	1	I/E Range Mode
IRANGE	QUANT	1.00000E-003	Max Current (mA)
EQDELAY	IQUANT	10	Equil. Time (s)
IRCOMP	SELECTOR	0	IRComp
PFCOR	QUANT	5.00000E+001	PF Corr. (ohm)
CYCLES	IQUANT	101	C&ycles (#)
ELECTRODETYPE	SELECTOR	0	Electrode Type
STRIPPING	TOGGLE	F	Used for Stripping
POLARITY	TOGGLE	F	Signal Polarity
LINEFREQ	IQUANT	60	Line Frequency (Hz)
INTPERIOD	QUANT	3.3334E-005	Integration Period (s)
SEQUENCER	TOGGLE	TRUE	Run as Sequence
PSTATMODEL	IQUANT	4	Pstat Model
PSTATSECTION	LABEL	REF600-24079	Pstat Section
PSTATSERIALNO	LABEL	24079	Pstat Serial Number
CTRLMODE	IQUANT	1	Control Mode
ELECTROMETER	IQUANT	0	RE=0 or CS=1
IESTAB	IQUANT	2	I/E Stability
CASPEED	IQUANT	6	Control Amp Speed
CONVENTION	IQUANT	1	Current Convention
ICHRANGE	IQUANT	2	Ich Range
ICHRANGEMODE	TOGGLE	F	Ich Auto Range
ICHOFFSETENABLE	TOGGLE	F	Ich Offset Enable
ICHOFFSET	QUANT	0	Ich Offset (V)
ICHFILTER	IQUANT	2	Ich Filter
VCHRANGE	IQUANT	2	Vch Range
VCHRANGEMODE	TOGGLE	F	Vch Auto Range
VCHOFFSETENABLE	TOGGLE	F	Vch Offset Enable
VCHOFFSET	QUANT	0	Vch Offset (V)
VCHFILTER	IQUANT	2	Vch Filter
ACHRANGE	IQUANT	2	Ach Range
ACHOFFSETENABLE	TOGGLE	F	Ach Offset Enable
ACHOFFSET	QUANT	0	Ach Offset (V)
ACHFILTER	IQUANT	1	Ach Filter
IERANGELOWERLIMIT	IQUANT	1	I/E Range Lower Limit
IERANGEMODE	TOGGLE	F	I/E AutoRange
IERANGE	IQUANT	6	I/E Range
POSFEEDENABLE	TOGGLE	F	Positive Feedback IR Comp
POSFEEDRESISTANCE	QUANT	0	Positive Feedback Resistance (ohm)
ACHSELECT	IQUANT	0	Ach Select
SENSECABLEID	IQUANT	13	Sense Cable ID
PWRCABLEID	IQUANT	13	Power Cable ID
DCCALDATE	LABEL	6/30/2020	DC Calibration Date
ACCALDATE	LABEL	6/30/2020	AC Calibration Date
THERMOSELECT	IQUANT	1	Thermo Select
FRAMEWORKVERSION	LABEL	7.8.2	Framework Version
INSTRUMENTVERSION	LABEL	4.40	Instrument Version
CURVE	TABLE	101
	Pt	T	Vfwd	Vrev	Vstep	Ifwd	Irev	Idif	Sig	Ach	IERange	Over	Temp
	#	s	V	V	V	A	A	A	V	V	#	bits	deg C
	0	0.1	-3.24837E-001	-3.74875E-001	-3.49856E-001	-1.12725E-008	-3.97951E-008	2.85226E-008	-3.75000E-001	3.96039E-004	6	..........a	-327.68
	1	0.2	-3.22845E-001	-3.72868E-001	-3.47857E-001	-5.27150E-010	-3.52512E-008	3.47241E-008	-3.73000E-001	3.89039E-004	6	..........a	-327.68
	2	0.3	-3.20858E-001	-3.70793E-001	-3.45826E-001	2.11285E-009	-3.38104E-008	3.59232E-008	-3.71000E-001	3.68706E-004	6	..........a	-327.68
	3	0.4	-3.18888E-001	-3.68866E-001	-3.43877E-001	3.62738E-009	-3.27909E-008	3.64183E-008	-3.69000E-001	3.71206E-004	6	..........a	-327.68
	4	0.5	-3.16757E-001	-3.66899E-001	-3.41828E-001	4.81153E-009	-3.22912E-008	3.71027E-008	-3.67000E-001	3.53873E-004	6	..........a	-327.68
	5	0.6	-3.14875E-001	-3.64846E-001	-3.39861E-001	5.55962E-009	-3.18088E-008	3.73684E-008	-3.65000E-001	3.60539E-004	6	..........a	-327.68
	6	0.7	-3.12861E-001	-3.62832E-001	-3.37846E-001	6.68443E-009	-3.14051E-008	3.80895E-008	-3.63000E-001	3.65873E-004	6	..........a	-327.68
	7	0.8	-3.10872E-001	-3.60874E-001	-3.35873E-001	7.87192E-009	-3.11744E-008	3.90463E-008	-3.61000E-001	3.75206E-004	6	..........a	-327.68
	8	0.9	-3.08781E-001	-3.58884E-001	-3.33832E-001	8.82804E-009	-3.10267E-008	3.98547E-008	-3.59000E-001	3.72706E-004	6	..........a	-327.68
	9	1	-3.06820E-001	-3.56830E-001	-3.31825E-001	1.02842E-008	-3.11474E-008	4.14316E-008	-3.57000E-001	3.60206E-004	6	..........a	-327.68
	10	1.1	-3.04833E-001	-3.54849E-001	-3.29841E-001	1.12790E-008	-3.09237E-008	4.22027E-008	-3.55000E-001	3.69539E-004	6	..........a	-327.68
	11	1.2	-3.02882E-001	-3.52877E-001	-3.27879E-001	1.24595E-008	-3.12431E-008	4.37026E-008	-3.53000E-001	3.61206E-004	6	..........a	-327.68
	12	1.3	-3.00847E-001	-3.50868E-001	-3.25857E-001	1.38543E-008	-3.13544E-008	4.52088E-008	-3.51000E-001	3.72373E-004	6	..........a	-327.68
	13	1.4	-2.98837E-001	-3.48868E-001	-3.23852E-001	1.54535E-008	-3.16398E-008	4.70933E-008	-3.49000E-001	3.74873E-004	6	..........a	-327.68
	14	1.5	-2.96871E-001	-3.46865E-001	-3.21868E-001	1.70744E-008	-3.19925E-008	4.90669E-008	-3.47000E-001	3.62706E-004	6	..........a	-327.68
	15	1.6	-2.94878E-001	-3.44855E-001	-3.19867E-001	1.86290E-008	-3.27132E-008	5.13422E-008	-3.45000E-001	3.66706E-004	6	..........a	-327.68
	16	1.7	-2.92744E-001	-3.42890E-001	-3.17817E-001	2.05792E-008	-3.33373E-008	5.39165E-008	-3.43000E-001	3.61206E-004	6	..........a	-327.68
	17	1.8	-2.90817E-001	-3.40847E-001	-3.15832E-001	2.25745E-008	-3.42408E-008	5.68152E-008	-3.41000E-001	3.84039E-004	6	..........a	-327.68
	18	1.9	-2.88899E-001	-3.38842E-001	-3.13871E-001	2.48551E-008	-3.50805E-008	5.99356E-008	-3.39000E-001	3.83539E-004	6	..........a	-327.68
	19	2	-2.86866E-001	-3.36858E-001	-3.11862E-001	2.72894E-008	-3.62230E-008	6.35124E-008	-3.37000E-001	3.78373E-004	6	..........a	-327.68
	20	2.1	-2.84817E-001	-3.34858E-001	-3.09837E-001	2.99774E-008	-3.73065E-008	6.72839E-008	-3.35000E-001	3.77039E-004	6	..........a	-327.68
	21	2.2	-2.82810E-001	-3.32764E-001	-3.07787E-001	3.25994E-008	-3.89320E-008	7.15314E-008	-3.33000E-001	3.65373E-004	6	..........a	-327.68
	22	2.3	-2.80884E-001	-3.30826E-001	-3.05855E-001	3.53007E-008	-4.07153E-008	7.60160E-008	-3.31000E-001	3.78373E-004	6	..........a	-327.68
	23	2.4	-2.78862E-001	-3.28880E-001	-3.03871E-001	3.85045E-008	-4.24375E-008	8.09420E-008	-3.29000E-001	3.76539E-004	6	..........a	-327.68
	24	2.5	-2.76837E-001	-3.26879E-001	-3.01858E-001	4.13992E-008	-4.46424E-008	8.60416E-008	-3.27000E-001	3.94039E-004	6	..........a	-327.68
	25	2.6	-2.74842E-001	-3.24862E-001	-2.99852E-001	4.46739E-008	-4.68130E-008	9.14870E-008	-3.25000E-001	3.85373E-004	6	..........a	-327.68
	26	2.7	-2.72859E-001	-3.22854E-001	-2.97856E-001	4.82170E-008	-4.93960E-008	9.76131E-008	-3.23000E-001	3.79873E-004	6	..........a	-327.68
	27	2.8	-2.70870E-001	-3.20875E-001	-2.95872E-001	5.15551E-008	-5.18914E-008	1.03446E-007	-3.21000E-001	3.62873E-004	6	..........a	-327.68
	28	2.9	-2.68856E-001	-3.18878E-001	-2.93867E-001	5.49062E-008	-5.46244E-008	1.09531E-007	-3.19000E-001	4.00706E-004	6	..........a	-327.68
	29	3	-2.66790E-001	-3.16816E-001	-2.91803E-001	5.81583E-008	-5.77544E-008	1.15913E-007	-3.17000E-001	4.04373E-004	6	..........a	-327.68
	30	3.1	-2.64854E-001	-3.14888E-001	-2.89871E-001	6.16748E-008	-6.09702E-008	1.22645E-007	-3.15000E-001	3.88206E-004	6	..........a	-327.68
	31	3.2	-2.62854E-001	-3.12879E-001	-2.87866E-001	6.47095E-008	-6.42086E-008	1.28918E-007	-3.13000E-001	3.84039E-004	6	..........a	-327.68
	32	3.3	-2.60786E-001	-3.10871E-001	-2.85828E-001	6.73635E-008	-6.80104E-008	1.35374E-007	-3.11000E-001	3.90873E-004	6	..........a	-327.68
	33	3.4	-2.58806E-001	-3.08858E-001	-2.83832E-001	7.03142E-008	-7.13642E-008	1.41678E-007	-3.09000E-001	3.85206E-004	6	..........a	-327.68
	34	3.5	-2.56844E-001	-3.06862E-001	-2.81853E-001	7.27092E-008	-7.48749E-008	1.47584E-007	-3.07000E-001	3.91539E-004	6	..........a	-327.68
	35	3.6	-2.54864E-001	-3.04885E-001	-2.79874E-001	7.49508E-008	-7.83537E-008	1.53305E-007	-3.05000E-001	3.73039E-004	6	..........a	-327.68
	36	3.7	-2.52815E-001	-3.02889E-001	-2.77852E-001	7.66527E-008	-8.18885E-008	1.58541E-007	-3.03000E-001	3.72706E-004	6	..........a	-327.68
	37	3.8	-2.50829E-001	-3.00885E-001	-2.75857E-001	7.80535E-008	-8.51146E-008	1.63168E-007	-3.01000E-001	3.85039E-004	6	..........a	-327.68
	38	3.9	-2.48841E-001	-2.98864E-001	-2.73853E-001	7.91713E-008	-8.83867E-008	1.67558E-007	-2.99000E-001	3.68706E-004	6	..........a	-327.68
	39	4	-2.46843E-001	-2.96878E-001	-2.71861E-001	7.99948E-008	-9.13517E-008	1.71346E-007	-2.97000E-001	3.79873E-004	6	..........a	-327.68
	40	4.1	-2.44850E-001	-2.94873E-001	-2.69862E-001	8.02508E-008	-9.40290E-008	1.74280E-007	-2.95000E-001	3.74706E-004	6	..........a	-327.68
	41	4.2	-2.42794E-001	-2.92732E-001	-2.67763E-001	7.99764E-008	-9.60720E-008	1.76048E-007	-2.93000E-001	3.80539E-004	6	..........a	-327.68
	42	4.3	-2.40851E-001	-2.90829E-001	-2.65840E-001	7.96337E-008	-9.79762E-008	1.77610E-007	-2.91000E-001	3.72373E-004	6	..........a	-327.68
	43	4.4	-2.38872E-001	-2.88900E-001	-2.63886E-001	7.87139E-008	-9.95301E-008	1.78244E-007	-2.89000E-001	3.73873E-004	6	..........a	-327.68
	44	4.5	-2.36819E-001	-2.86881E-001	-2.61850E-001	7.76788E-008	-1.00637E-007	1.78316E-007	-2.87000E-001	3.80206E-004	6	..........a	-327.68
	45	4.6	-2.34807E-001	-2.84834E-001	-2.59821E-001	7.61273E-008	-1.01251E-007	1.77379E-007	-2.85000E-001	3.67873E-004	6	..........a	-327.68
	46	4.7	-2.32832E-001	-2.82832E-001	-2.57832E-001	7.43920E-008	-1.01224E-007	1.75616E-007	-2.83000E-001	3.76539E-004	6	..........a	-327.68
	47	4.8	-2.30855E-001	-2.80906E-001	-2.55880E-001	7.25381E-008	-1.00721E-007	1.73259E-007	-2.81000E-001	3.77039E-004	6	..........a	-327.68
	48	4.9	-2.28751E-001	-2.78882E-001	-2.53816E-001	7.02915E-008	-9.99081E-008	1.70200E-007	-2.79000E-001	3.82873E-004	6	..........a	-327.68
	49	5	-2.26809E-001	-2.76874E-001	-2.51842E-001	6.82026E-008	-9.82529E-008	1.66456E-007	-2.77000E-001	3.72206E-004	6	..........a	-327.68
	50	5.1	-2.24847E-001	-2.74849E-001	-2.49848E-001	6.57163E-008	-9.65497E-008	1.62266E-007	-2.75000E-001	3.64706E-004	6	..........a	-327.68
	51	5.2	-2.22853E-001	-2.72883E-001	-2.47868E-001	6.35553E-008	-9.42101E-008	1.57765E-007	-2.73000E-001	3.69706E-004	6	..........a	-327.68
	52	5.3	-2.20834E-001	-2.70878E-001	-2.45856E-001	6.11007E-008	-9.16157E-008	1.52716E-007	-2.71000E-001	3.74706E-004	6	..........a	-327.68
	53	5.4	-2.18831E-001	-2.68879E-001	-2.43855E-001	5.83057E-008	-8.85913E-008	1.46897E-007	-2.69000E-001	3.69373E-004	6	..........a	-327.68
	54	5.5	-2.16830E-001	-2.66832E-001	-2.41831E-001	5.61327E-008	-8.51259E-008	1.41259E-007	-2.67000E-001	3.73873E-004	6	..........a	-327.68
	55	5.6	-2.14871E-001	-2.64887E-001	-2.39879E-001	5.35331E-008	-8.14838E-008	1.35017E-007	-2.65000E-001	3.73039E-004	6	..........a	-327.68
	56	5.7	-2.12824E-001	-2.62870E-001	-2.37847E-001	5.11834E-008	-7.79253E-008	1.29109E-007	-2.63000E-001	3.76539E-004	6	..........a	-327.68
	57	5.8	-2.10832E-001	-2.60837E-001	-2.35835E-001	4.86724E-008	-7.41175E-008	1.22790E-007	-2.61000E-001	3.76539E-004	6	..........a	-327.68
	58	5.9	-2.08853E-001	-2.58837E-001	-2.33845E-001	4.65898E-008	-7.00203E-008	1.16610E-007	-2.59000E-001	3.94206E-004	6	..........a	-327.68
	59	6	-2.06871E-001	-2.56876E-001	-2.31874E-001	4.42249E-008	-6.63582E-008	1.10583E-007	-2.57000E-001	3.83373E-004	6	..........a	-327.68
	60	6.1	-2.04799E-001	-2.54883E-001	-2.29841E-001	4.25027E-008	-6.23744E-008	1.04877E-007	-2.55000E-001	3.82873E-004	6	..........a	-327.68
	61	6.2	-2.02824E-001	-2.52859E-001	-2.27841E-001	4.05761E-008	-5.84889E-008	9.90649E-008	-2.53000E-001	3.79539E-004	6	..........a	-327.68
	62	6.3	-2.00869E-001	-2.50851E-001	-2.25860E-001	3.85378E-008	-5.48217E-008	9.33595E-008	-2.51000E-001	3.82539E-004	6	..........a	-327.68
	63	6.4	-1.98866E-001	-2.48869E-001	-2.23867E-001	3.69916E-008	-5.12209E-008	8.82126E-008	-2.49000E-001	3.87373E-004	6	..........a	-327.68
	64	6.5	-1.96849E-001	-2.46867E-001	-2.21858E-001	3.52394E-008	-4.77075E-008	8.29469E-008	-2.47000E-001	3.83539E-004	6	..........a	-327.68
	65	6.6	-1.94848E-001	-2.44875E-001	-2.19862E-001	3.38026E-008	-4.44917E-008	7.82943E-008	-2.45000E-001	3.70206E-004	6	..........a	-327.68
	66	6.7	-1.92879E-001	-2.42807E-001	-2.17843E-001	3.22847E-008	-4.14504E-008	7.37351E-008	-2.43000E-001	3.80373E-004	6	..........a	-327.68
	67	6.8	-1.90898E-001	-2.40854E-001	-2.15876E-001	3.12099E-008	-3.83533E-008	6.95632E-008	-2.41000E-001	3.80373E-004	6	..........a	-327.68
	68	6.9	-1.88749E-001	-2.38895E-001	-2.13822E-001	3.00917E-008	-3.56560E-008	6.57477E-008	-2.39000E-001	3.79873E-004	6	..........a	-327.68
	69	7	-1.86823E-001	-2.36822E-001	-2.11822E-001	2.89853E-008	-3.29743E-008	6.19596E-008	-2.37000E-001	3.77706E-004	6	..........a	-327.68
	70	7.1	-1.84854E-001	-2.34830E-001	-2.09842E-001	2.80208E-008	-3.07850E-008	5.88058E-008	-2.35000E-001	3.82706E-004	6	..........a	-327.68
	71	7.2	-1.82861E-001	-2.32851E-001	-2.07856E-001	2.70704E-008	-2.85934E-008	5.56637E-008	-2.33000E-001	3.77206E-004	6	..........a	-327.68
	72	7.3	-1.80779E-001	-2.30869E-001	-2.05824E-001	2.63923E-008	-2.66755E-008	5.30678E-008	-2.31000E-001	3.70706E-004	6	..........a	-327.68
	73	7.4	-1.78828E-001	-2.28799E-001	-2.03814E-001	2.54555E-008	-2.50069E-008	5.04624E-008	-2.29000E-001	3.83373E-004	6	..........a	-327.68
	74	7.5	-1.76841E-001	-2.26839E-001	-2.01840E-001	2.48914E-008	-2.32560E-008	4.81475E-008	-2.27000E-001	3.77373E-004	6	..........a	-327.68
	75	7.6	-1.74864E-001	-2.24874E-001	-1.99869E-001	2.41553E-008	-2.19175E-008	4.60729E-008	-2.25000E-001	3.74706E-004	6	..........a	-327.68
	76	7.7	-1.72845E-001	-2.22858E-001	-1.97852E-001	2.37489E-008	-2.05220E-008	4.42710E-008	-2.23000E-001	3.77373E-004	6	..........a	-327.68
	77	7.8	-1.70831E-001	-2.20867E-001	-1.95849E-001	2.33032E-008	-1.93545E-008	4.26578E-008	-2.21000E-001	3.90039E-004	6	..........a	-327.68
	78	7.9	-1.68856E-001	-2.18849E-001	-1.93852E-001	2.29905E-008	-1.82464E-008	4.12369E-008	-2.19000E-001	3.78873E-004	6	..........a	-327.68
	79	8	-1.66857E-001	-2.16869E-001	-1.91863E-001	2.26281E-008	-1.72459E-008	3.98741E-008	-2.17000E-001	3.80039E-004	6	..........a	-327.68
	80	8.1	-1.64722E-001	-2.14884E-001	-1.89803E-001	2.22994E-008	-1.63008E-008	3.86002E-008	-2.15000E-001	3.58873E-004	6	..........a	-327.68
	81	8.2	-1.62807E-001	-2.12802E-001	-1.87804E-001	2.19390E-008	-1.58241E-008	3.77631E-008	-2.13000E-001	3.79873E-004	6	..........a	-327.68
	82	8.3	-1.60863E-001	-2.10828E-001	-1.85845E-001	2.16767E-008	-1.47793E-008	3.64560E-008	-2.11000E-001	3.78206E-004	6	..........a	-327.68
	83	8.4	-1.58860E-001	-2.08853E-001	-1.83856E-001	2.17637E-008	-1.45063E-008	3.62699E-008	-2.09000E-001	3.65039E-004	6	..........a	-327.68
	84	8.5	-1.56795E-001	-2.06867E-001	-1.81831E-001	2.14073E-008	-1.36595E-008	3.50668E-008	-2.07000E-001	3.69039E-004	6	..........a	-327.68
	85	8.6	-1.54814E-001	-2.04757E-001	-1.79785E-001	2.11306E-008	-1.29581E-008	3.40887E-008	-2.05000E-001	3.68539E-004	6	..........a	-327.68
	86	8.7	-1.52870E-001	-2.02832E-001	-1.77851E-001	2.12209E-008	-1.27224E-008	3.39433E-008	-2.03000E-001	3.58039E-004	6	..........a	-327.68
	87	8.8	-1.50852E-001	-2.00864E-001	-1.75858E-001	2.12246E-008	-1.23073E-008	3.35319E-008	-2.01000E-001	3.82039E-004	6	..........a	-327.68
	88	8.9	-1.48841E-001	-1.98871E-001	-1.73856E-001	2.08076E-008	-1.17126E-008	3.25201E-008	-1.99000E-001	3.59706E-004	6	..........a	-327.68
	89	9	-1.46844E-001	-1.96828E-001	-1.71836E-001	2.10363E-008	-1.14369E-008	3.24731E-008	-1.97000E-001	3.61539E-004	6	..........a	-327.68
	90	9.1	-1.44855E-001	-1.94847E-001	-1.69851E-001	2.09886E-008	-1.12425E-008	3.22311E-008	-1.95000E-001	3.57539E-004	6	..........a	-327.68
	91	9.2	-1.42856E-001	-1.92860E-001	-1.67858E-001	2.08962E-008	-1.10065E-008	3.19027E-008	-1.93000E-001	3.66873E-004	6	..........a	-327.68
	92	9.3	-1.40858E-001	-1.90909E-001	-1.65884E-001	2.09226E-008	-1.04397E-008	3.13623E-008	-1.91000E-001	3.62706E-004	6	..........a	-327.68
	93	9.4	-1.38800E-001	-1.88721E-001	-1.63761E-001	2.09006E-008	-1.03187E-008	3.12193E-008	-1.89000E-001	3.65039E-004	6	..........a	-327.68
	94	9.5	-1.36846E-001	-1.86830E-001	-1.61838E-001	2.08826E-008	-9.98502E-009	3.08676E-008	-1.87000E-001	3.52873E-004	6	..........a	-327.68
	95	9.6	-1.34855E-001	-1.84858E-001	-1.59857E-001	2.09349E-008	-9.77899E-009	3.07139E-008	-1.85000E-001	3.64039E-004	6	..........a	-327.68
	96	9.7	-1.32778E-001	-1.82852E-001	-1.57815E-001	2.09816E-008	-9.66931E-009	3.06509E-008	-1.83000E-001	3.64539E-004	6	..........a	-327.68
	97	9.8	-1.30802E-001	-1.80801E-001	-1.55801E-001	2.08796E-008	-9.26159E-009	3.01412E-008	-1.81000E-001	3.65039E-004	6	..........a	-327.68
	98	9.9	-1.28833E-001	-1.78836E-001	-1.53834E-001	2.08786E-008	-9.21992E-009	3.00985E-008	-1.79000E-001	3.79039E-004	6	..........a	-327.68
	99	10	-1.26848E-001	-1.76852E-001	-1.51850E-001	2.09409E-008	-9.09791E-009	3.00388E-008	-1.77000E-001	3.69873E-004	6	..........a	-327.68
	100	10.1	-1.24809E-001	-1.74864E-001	-1.49837E-001	2.09796E-008	-8.99723E-009	2.99768E-008	-1.75000E-001	3.85706E-004	6	..........a	-327.68
