EXPLAIN
TAG	SQUARE_WAVE
TITLE	LABEL	Square Wave Voltammetry	Test Identifier
DATE	LABEL	8/10/2020	Date
TIME	LABEL	19:16:40	Time
NOTES	NOTES	1	Notes...
	
PSTAT	PSTAT	REF600-24079	Potentiostat
VINIT	QUANT	-3.50000E-001	Initial E (V)
VFINAL	QUANT	-1.50000E-001	Final E (V)
STEPSIZE	QUANT	2.00000E+000	Step Size (mV)
TIMERRES	QUANT	3.33340E-005	&Timer Resolution
FREQUENCY	QUANT	1.00000E+002	Frequency (Hz)
PULSESIZE	QUANT	2.50000E+001	Pulse Size E (mV)
PULSEON	QUANT	1.00000E-002	Pulse &Time (s)
NOISEREJECT	TOGGLE	F	Noise Rejection
AREA	QUANT	2.00000E-002	Sample Area (cm^2)
IMODE	SELECTOR	1	I/E Range Mode
IRANGE	QUANT	1.00000E-002	Max Current (mA)
EQDELAY	IQUANT	10	Equil. Time (s)
IRCOMP	SELECTOR	0	IRComp
PFCOR	QUANT	5.00000E+001	PF Corr. (ohm)
CYCLES	IQUANT	101	C&ycles (#)
ELECTRODETYPE	SELECTOR	0	Electrode Type
STRIPPING	TOGGLE	F	Used for Stripping
POLARITY	TOGGLE	F	Signal Polarity
LINEFREQ	IQUANT	60	Line Frequency (Hz)
INTPERIOD	QUANT	3.3334E-005	Integration Period (s)
SEQUENCER	TOGGLE	TRUE	Run as Sequence
PSTATMODEL	IQUANT	4	Pstat Model
PSTATSECTION	LABEL	REF600-24079	Pstat Section
PSTATSERIALNO	LABEL	24079	Pstat Serial Number
CTRLMODE	IQUANT	1	Control Mode
ELECTROMETER	IQUANT	0	RE=0 or CS=1
IESTAB	IQUANT	2	I/E Stability
CASPEED	IQUANT	6	Control Amp Speed
CONVENTION	IQUANT	1	Current Convention
ICHRANGE	IQUANT	2	Ich Range
ICHRANGEMODE	TOGGLE	F	Ich Auto Range
ICHOFFSETENABLE	TOGGLE	F	Ich Offset Enable
ICHOFFSET	QUANT	0	Ich Offset (V)
ICHFILTER	IQUANT	2	Ich Filter
VCHRANGE	IQUANT	2	Vch Range
VCHRANGEMODE	TOGGLE	F	Vch Auto Range
VCHOFFSETENABLE	TOGGLE	F	Vch Offset Enable
VCHOFFSET	QUANT	0	Vch Offset (V)
VCHFILTER	IQUANT	2	Vch Filter
ACHRANGE	IQUANT	2	Ach Range
ACHOFFSETENABLE	TOGGLE	F	Ach Offset Enable
ACHOFFSET	QUANT	0	Ach Offset (V)
ACHFILTER	IQUANT	1	Ach Filter
IERANGELOWERLIMIT	IQUANT	1	I/E Range Lower Limit
IERANGEMODE	TOGGLE	F	I/E AutoRange
IERANGE	IQUANT	7	I/E Range
POSFEEDENABLE	TOGGLE	F	Positive Feedback IR Comp
POSFEEDRESISTANCE	QUANT	0	Positive Feedback Resistance (ohm)
ACHSELECT	IQUANT	0	Ach Select
SENSECABLEID	IQUANT	13	Sense Cable ID
PWRCABLEID	IQUANT	13	Power Cable ID
DCCALDATE	LABEL	6/30/2020	DC Calibration Date
ACCALDATE	LABEL	6/30/2020	AC Calibration Date
THERMOSELECT	IQUANT	1	Thermo Select
FRAMEWORKVERSION	LABEL	7.8.2	Framework Version
INSTRUMENTVERSION	LABEL	4.40	Instrument Version
CURVE	TABLE	101
	Pt	T	Vfwd	Vrev	Vstep	Ifwd	Irev	Idif	Sig	Ach	IERange	Over	Temp
	#	s	V	V	V	A	A	A	V	V	#	bits	deg C
	0	0.01	-3.24939E-001	-3.74506E-001	-3.49723E-001	-1.07253E-007	1.12577E-007	-2.19830E-007	-3.75000E-001	3.24373E-004	7	..........a	-327.68
	1	0.02	-3.23359E-001	-3.72529E-001	-3.47944E-001	-4.88571E-007	1.49382E-007	-6.37954E-007	-3.73000E-001	3.32706E-004	7	..........a	-327.68
	2	0.03	-3.21326E-001	-3.70544E-001	-3.45935E-001	-4.66868E-007	1.65351E-007	-6.32220E-007	-3.71000E-001	3.21039E-004	7	..........a	-327.68
	3	0.04	-3.19384E-001	-3.68566E-001	-3.43975E-001	-4.53633E-007	1.75186E-007	-6.28819E-007	-3.69000E-001	3.19373E-004	7	..........a	-327.68
	4	0.05	-3.17389E-001	-3.66513E-001	-3.41951E-001	-4.47332E-007	1.82187E-007	-6.29519E-007	-3.67000E-001	3.24373E-004	7	..........a	-327.68
	5	0.06	-3.15389E-001	-3.64506E-001	-3.39948E-001	-4.41832E-007	1.86054E-007	-6.27886E-007	-3.65000E-001	3.32706E-004	7	..........a	-327.68
	6	0.07	-3.13321E-001	-3.62528E-001	-3.37924E-001	-4.36697E-007	1.93122E-007	-6.29819E-007	-3.63000E-001	3.17706E-004	7	..........a	-327.68
	7	0.08	-3.11368E-001	-3.60529E-001	-3.35948E-001	-4.33064E-007	1.97356E-007	-6.30419E-007	-3.61000E-001	3.36039E-004	7	..........a	-327.68
	8	0.09	-3.09353E-001	-3.58478E-001	-3.33915E-001	-4.28863E-007	1.99956E-007	-6.28819E-007	-3.59000E-001	3.06039E-004	7	..........a	-327.68
	9	0.1	-3.07346E-001	-3.56496E-001	-3.31921E-001	-4.24729E-007	2.05523E-007	-6.30253E-007	-3.57000E-001	3.17706E-004	7	..........a	-327.68
	10	0.11	-3.05321E-001	-3.54524E-001	-3.29923E-001	-4.20062E-007	2.07690E-007	-6.27752E-007	-3.55000E-001	3.21039E-004	7	..........a	-327.68
	11	0.12	-3.03393E-001	-3.52544E-001	-3.27968E-001	-4.16228E-007	2.12624E-007	-6.28852E-007	-3.53000E-001	3.06039E-004	7	..........a	-327.68
	12	0.13	-3.01374E-001	-3.50499E-001	-3.25937E-001	-4.11961E-007	2.11691E-007	-6.23652E-007	-3.51000E-001	3.07706E-004	7	..........a	-327.68
	13	0.14	-2.99344E-001	-3.48541E-001	-3.23943E-001	-4.09594E-007	2.15491E-007	-6.25085E-007	-3.49000E-001	3.14373E-004	7	..........a	-327.68
	14	0.15	-2.97331E-001	-3.46513E-001	-3.21922E-001	-4.08760E-007	2.21926E-007	-6.30686E-007	-3.47000E-001	3.42706E-004	7	..........a	-327.68
	15	0.16	-2.95348E-001	-3.44543E-001	-3.19945E-001	-4.04693E-007	2.22792E-007	-6.27486E-007	-3.45000E-001	3.24373E-004	7	..........a	-327.68
	16	0.17	-2.93426E-001	-3.42434E-001	-3.17930E-001	-4.05260E-007	2.26460E-007	-6.31719E-007	-3.43000E-001	3.41039E-004	7	..........a	-327.68
	17	0.18	-2.91383E-001	-3.40518E-001	-3.15950E-001	-4.00993E-007	2.30593E-007	-6.31586E-007	-3.41000E-001	2.91039E-004	7	..........a	-327.68
	18	0.19	-2.89304E-001	-3.38549E-001	-3.13927E-001	-3.97259E-007	2.29860E-007	-6.27119E-007	-3.39000E-001	3.04373E-004	7	..........a	-327.68
	19	0.2	-2.87376E-001	-3.36509E-001	-3.11943E-001	-3.95692E-007	2.34194E-007	-6.29886E-007	-3.37000E-001	3.17706E-004	7	..........a	-327.68
	20	0.21	-2.85369E-001	-3.34478E-001	-3.09923E-001	-3.90124E-007	2.36061E-007	-6.26185E-007	-3.35000E-001	3.34373E-004	7	..........a	-327.68
	21	0.22	-2.83393E-001	-3.32501E-001	-3.07947E-001	-3.86657E-007	2.39728E-007	-6.26385E-007	-3.33000E-001	3.32706E-004	7	..........a	-327.68
	22	0.23	-2.81293E-001	-3.30508E-001	-3.05900E-001	-3.85157E-007	2.40662E-007	-6.25819E-007	-3.31000E-001	3.01039E-004	7	..........a	-327.68
	23	0.24	-2.79371E-001	-3.28528E-001	-3.03949E-001	-3.83457E-007	2.43795E-007	-6.27252E-007	-3.29000E-001	3.29373E-004	7	..........a	-327.68
	24	0.25	-2.77363E-001	-3.26478E-001	-3.01920E-001	-3.81923E-007	2.46562E-007	-6.28486E-007	-3.27000E-001	3.06039E-004	7	..........a	-327.68
	25	0.26	-2.75398E-001	-3.24509E-001	-2.99953E-001	-3.79323E-007	2.46696E-007	-6.26019E-007	-3.25000E-001	3.12706E-004	7	..........a	-327.68
	26	0.27	-2.73314E-001	-3.22499E-001	-2.97907E-001	-3.76589E-007	2.50696E-007	-6.27285E-007	-3.23000E-001	3.29373E-004	7	..........a	-327.68
	27	0.28	-2.71378E-001	-3.20508E-001	-2.95943E-001	-3.73956E-007	2.50996E-007	-6.24952E-007	-3.21000E-001	3.06039E-004	7	..........a	-327.68
	28	0.29	-2.69353E-001	-3.18424E-001	-2.93888E-001	-3.72489E-007	2.51896E-007	-6.24385E-007	-3.19000E-001	3.24373E-004	7	..........a	-327.68
	29	0.3	-2.67304E-001	-3.16484E-001	-2.91894E-001	-3.68622E-007	2.56130E-007	-6.24752E-007	-3.17000E-001	2.94373E-004	7	..........a	-327.68
	30	0.31	-2.65289E-001	-3.14551E-001	-2.89920E-001	-3.66455E-007	2.56630E-007	-6.23085E-007	-3.15000E-001	3.26039E-004	7	..........a	-327.68
	31	0.32	-2.63386E-001	-3.12548E-001	-2.87967E-001	-3.64621E-007	2.58564E-007	-6.23185E-007	-3.13000E-001	3.34373E-004	7	..........a	-327.68
	32	0.33	-2.61398E-001	-3.10454E-001	-2.85926E-001	-3.63954E-007	2.60264E-007	-6.24218E-007	-3.11000E-001	3.26039E-004	7	..........a	-327.68
	33	0.34	-2.59348E-001	-3.08463E-001	-2.83905E-001	-3.62421E-007	2.63098E-007	-6.25519E-007	-3.09000E-001	3.14373E-004	7	..........a	-327.68
	34	0.35	-2.57313E-001	-3.06569E-001	-2.81941E-001	-3.59320E-007	2.64898E-007	-6.24218E-007	-3.07000E-001	3.37706E-004	7	..........a	-327.68
	35	0.36	-2.55418E-001	-3.04541E-001	-2.79979E-001	-3.52853E-007	2.64165E-007	-6.17017E-007	-3.05000E-001	3.02706E-004	7	..........a	-327.68
	36	0.37	-2.53378E-001	-3.02524E-001	-2.77951E-001	-3.53553E-007	2.65732E-007	-6.19284E-007	-3.03000E-001	3.22706E-004	7	..........a	-327.68
	37	0.38	-2.51368E-001	-3.00498E-001	-2.75933E-001	-3.51553E-007	2.65432E-007	-6.16984E-007	-3.01000E-001	2.82706E-004	7	..........a	-327.68
	38	0.39	-2.49309E-001	-2.98536E-001	-2.73923E-001	-3.46919E-007	2.66832E-007	-6.13750E-007	-2.99000E-001	3.24373E-004	7	..........a	-327.68
	39	0.4	-2.47339E-001	-2.96538E-001	-2.71938E-001	-3.46852E-007	2.70632E-007	-6.17484E-007	-2.97000E-001	3.32706E-004	7	..........a	-327.68
	40	0.41	-2.45323E-001	-2.94506E-001	-2.69914E-001	-3.46418E-007	2.71132E-007	-6.17551E-007	-2.95000E-001	3.46039E-004	7	..........a	-327.68
	41	0.42	-2.43331E-001	-2.92486E-001	-2.67908E-001	-3.44785E-007	2.75066E-007	-6.19851E-007	-2.93000E-001	3.09373E-004	7	..........a	-327.68
	42	0.43	-2.41281E-001	-2.90536E-001	-2.65908E-001	-3.43885E-007	2.75100E-007	-6.18984E-007	-2.91000E-001	2.89373E-004	7	..........a	-327.68
	43	0.44	-2.39376E-001	-2.88534E-001	-2.63955E-001	-3.40118E-007	2.75566E-007	-6.15684E-007	-2.89000E-001	3.14373E-004	7	..........a	-327.68
	44	0.45	-2.37363E-001	-2.86461E-001	-2.61912E-001	-3.40384E-007	2.77767E-007	-6.18151E-007	-2.87000E-001	3.34373E-004	7	..........a	-327.68
	45	0.46	-2.35351E-001	-2.84474E-001	-2.59913E-001	-3.35950E-007	2.77733E-007	-6.13684E-007	-2.85000E-001	2.89373E-004	7	..........a	-327.68
	46	0.47	-2.33264E-001	-2.82498E-001	-2.57881E-001	-3.33083E-007	2.78633E-007	-6.11717E-007	-2.83000E-001	3.07706E-004	7	..........a	-327.68
	47	0.48	-2.31364E-001	-2.80534E-001	-2.55949E-001	-3.31717E-007	2.78867E-007	-6.10583E-007	-2.81000E-001	3.41039E-004	7	..........a	-327.68
	48	0.49	-2.29381E-001	-2.78498E-001	-2.53939E-001	-3.29483E-007	2.77967E-007	-6.07449E-007	-2.79000E-001	3.44373E-004	7	..........a	-327.68
	49	0.5	-2.27356E-001	-2.76489E-001	-2.51923E-001	-3.29983E-007	2.81967E-007	-6.11950E-007	-2.77000E-001	3.26039E-004	7	..........a	-327.68
	50	0.51	-2.25284E-001	-2.74523E-001	-2.49903E-001	-3.27416E-007	2.81900E-007	-6.09316E-007	-2.75000E-001	3.34373E-004	7	..........a	-327.68
	51	0.52	-2.23366E-001	-2.72509E-001	-2.47938E-001	-3.25116E-007	2.82801E-007	-6.07916E-007	-2.73000E-001	3.17706E-004	7	..........a	-327.68
	52	0.53	-2.21343E-001	-2.70536E-001	-2.45939E-001	-3.26182E-007	2.84167E-007	-6.10350E-007	-2.71000E-001	3.24373E-004	7	..........a	-327.68
	53	0.54	-2.19336E-001	-2.68463E-001	-2.43899E-001	-3.20815E-007	2.84201E-007	-6.05016E-007	-2.69000E-001	3.32706E-004	7	..........a	-327.68
	54	0.55	-2.17303E-001	-2.66523E-001	-2.41913E-001	-3.22449E-007	2.88001E-007	-6.10450E-007	-2.67000E-001	3.06039E-004	7	..........a	-327.68
	55	0.56	-2.15388E-001	-2.64559E-001	-2.39973E-001	-3.20715E-007	2.88401E-007	-6.09116E-007	-2.65000E-001	3.22706E-004	7	..........a	-327.68
	56	0.57	-2.13354E-001	-2.62526E-001	-2.37940E-001	-3.19348E-007	2.90702E-007	-6.10050E-007	-2.63000E-001	3.17706E-004	7	..........a	-327.68
	57	0.58	-2.11363E-001	-2.60504E-001	-2.35933E-001	-3.19148E-007	2.90168E-007	-6.09316E-007	-2.61000E-001	3.09373E-004	7	..........a	-327.68
	58	0.59	-2.09279E-001	-2.58498E-001	-2.33888E-001	-3.16781E-007	2.92535E-007	-6.09316E-007	-2.59000E-001	3.02706E-004	7	..........a	-327.68
	59	0.6	-2.07343E-001	-2.56518E-001	-2.31930E-001	-3.19281E-007	2.94002E-007	-6.13284E-007	-2.57000E-001	3.24373E-004	7	..........a	-327.68
	60	0.61	-2.05311E-001	-2.54456E-001	-2.29883E-001	-3.14581E-007	2.93669E-007	-6.08250E-007	-2.55000E-001	3.21039E-004	7	..........a	-327.68
	61	0.62	-2.03376E-001	-2.52488E-001	-2.27932E-001	-3.13381E-007	2.93135E-007	-6.06516E-007	-2.53000E-001	3.14373E-004	7	..........a	-327.68
	62	0.63	-2.01289E-001	-2.50536E-001	-2.25913E-001	-3.10880E-007	2.93202E-007	-6.04082E-007	-2.51000E-001	3.02706E-004	7	..........a	-327.68
	63	0.64	-1.99368E-001	-2.48538E-001	-2.23953E-001	-3.10547E-007	2.94002E-007	-6.04549E-007	-2.49000E-001	3.41039E-004	7	..........a	-327.68
	64	0.65	-1.97359E-001	-2.46526E-001	-2.21943E-001	-3.09947E-007	2.97936E-007	-6.07883E-007	-2.47000E-001	3.17706E-004	7	..........a	-327.68
	65	0.66	-1.95369E-001	-2.44526E-001	-2.19948E-001	-3.08347E-007	2.98969E-007	-6.07316E-007	-2.45000E-001	3.09373E-004	7	..........a	-327.68
	66	0.67	-1.93309E-001	-2.42533E-001	-2.17921E-001	-3.08313E-007	2.98736E-007	-6.07049E-007	-2.43000E-001	3.27706E-004	7	..........a	-327.68
	67	0.68	-1.91373E-001	-2.40538E-001	-2.15955E-001	-3.08313E-007	3.03503E-007	-6.11817E-007	-2.41000E-001	3.21039E-004	7	..........a	-327.68
	68	0.69	-1.89386E-001	-2.38489E-001	-2.13938E-001	-3.07747E-007	3.03037E-007	-6.10783E-007	-2.39000E-001	2.86039E-004	7	..........a	-327.68
	69	0.7	-1.87374E-001	-2.36504E-001	-2.11939E-001	-3.08347E-007	3.03537E-007	-6.11883E-007	-2.37000E-001	3.14373E-004	7	..........a	-327.68
	70	0.71	-1.85314E-001	-2.34509E-001	-2.09912E-001	-3.06513E-007	3.05537E-007	-6.12050E-007	-2.35000E-001	3.29373E-004	7	..........a	-327.68
	71	0.72	-1.83358E-001	-2.32499E-001	-2.07928E-001	-3.05313E-007	3.06304E-007	-6.11617E-007	-2.33000E-001	3.06039E-004	7	..........a	-327.68
	72	0.73	-1.81346E-001	-2.30449E-001	-2.05898E-001	-3.05546E-007	3.05470E-007	-6.11017E-007	-2.31000E-001	3.34373E-004	7	..........a	-327.68
	73	0.74	-1.79351E-001	-2.28466E-001	-2.03908E-001	-3.04079E-007	3.08071E-007	-6.12150E-007	-2.29000E-001	3.37706E-004	7	..........a	-327.68
	74	0.75	-1.77274E-001	-2.26509E-001	-2.01892E-001	-3.05180E-007	3.07837E-007	-6.13017E-007	-2.27000E-001	3.32706E-004	7	..........a	-327.68
	75	0.76	-1.75379E-001	-2.24518E-001	-1.99948E-001	-3.02646E-007	3.07471E-007	-6.10116E-007	-2.25000E-001	3.37706E-004	7	..........a	-327.68
	76	0.77	-1.73353E-001	-2.22506E-001	-1.97929E-001	-3.03079E-007	3.10704E-007	-6.13784E-007	-2.23000E-001	3.11039E-004	7	..........a	-327.68
	77	0.78	-1.71343E-001	-2.20499E-001	-1.95921E-001	-3.02279E-007	3.13371E-007	-6.15650E-007	-2.21000E-001	3.16039E-004	7	..........a	-327.68
	78	0.79	-1.69289E-001	-2.18529E-001	-1.93909E-001	-3.01646E-007	3.13271E-007	-6.14917E-007	-2.19000E-001	3.49373E-004	7	..........a	-327.68
	79	0.8	-1.67339E-001	-2.16566E-001	-1.91953E-001	-3.00546E-007	3.14738E-007	-6.15284E-007	-2.17000E-001	3.36039E-004	7	..........a	-327.68
	80	0.81	-1.65351E-001	-2.14418E-001	-1.89884E-001	-3.00746E-007	3.14605E-007	-6.15350E-007	-2.15000E-001	3.27706E-004	7	..........a	-327.68
	81	0.82	-1.63331E-001	-2.12498E-001	-1.87914E-001	-2.98379E-007	3.16939E-007	-6.15317E-007	-2.13000E-001	3.21039E-004	7	..........a	-327.68
	82	0.83	-1.61303E-001	-2.10529E-001	-1.85916E-001	-3.00246E-007	3.19006E-007	-6.19251E-007	-2.11000E-001	3.19373E-004	7	..........a	-327.68
	83	0.84	-1.59393E-001	-2.08509E-001	-1.83951E-001	-2.98479E-007	3.20706E-007	-6.19184E-007	-2.09000E-001	3.29373E-004	7	..........a	-327.68
	84	0.85	-1.57338E-001	-2.06473E-001	-1.81905E-001	-2.97412E-007	3.21739E-007	-6.19151E-007	-2.07000E-001	3.06039E-004	7	..........a	-327.68
	85	0.86	-1.55341E-001	-2.04464E-001	-1.79903E-001	-2.96512E-007	3.21773E-007	-6.18284E-007	-2.05000E-001	3.44373E-004	7	..........a	-327.68
	86	0.87	-1.53318E-001	-2.02524E-001	-1.77921E-001	-2.97779E-007	3.21406E-007	-6.19184E-007	-2.03000E-001	3.07706E-004	7	..........a	-327.68
	87	0.88	-1.51381E-001	-2.00524E-001	-1.75953E-001	-2.95245E-007	3.23473E-007	-6.18718E-007	-2.01000E-001	3.07706E-004	7	..........a	-327.68
	88	0.89	-1.49373E-001	-1.98478E-001	-1.73925E-001	-2.92878E-007	3.22839E-007	-6.15717E-007	-1.99000E-001	3.21039E-004	7	..........a	-327.68
	89	0.9	-1.47334E-001	-1.96496E-001	-1.71915E-001	-2.93311E-007	3.24540E-007	-6.17851E-007	-1.97000E-001	2.99373E-004	7	..........a	-327.68
	90	0.91	-1.45286E-001	-1.94516E-001	-1.69901E-001	-2.92111E-007	3.24673E-007	-6.16784E-007	-1.95000E-001	3.37706E-004	7	..........a	-327.68
	91	0.92	-1.43368E-001	-1.92518E-001	-1.67943E-001	-2.94078E-007	3.28140E-007	-6.22218E-007	-1.93000E-001	3.26039E-004	7	..........a	-327.68
	92	0.93	-1.41303E-001	-1.90388E-001	-1.65845E-001	-2.94045E-007	3.26907E-007	-6.20951E-007	-1.91000E-001	2.77706E-004	7	..........a	-327.68
	93	0.94	-1.39313E-001	-1.88444E-001	-1.63878E-001	-2.92211E-007	3.31307E-007	-6.23518E-007	-1.89000E-001	3.04373E-004	7	..........a	-327.68
	94	0.95	-1.37278E-001	-1.86538E-001	-1.61908E-001	-2.93411E-007	3.30174E-007	-6.23585E-007	-1.87000E-001	3.11039E-004	7	..........a	-327.68
	95	0.96	-1.35344E-001	-1.84526E-001	-1.59935E-001	-2.92178E-007	3.28640E-007	-6.20818E-007	-1.85000E-001	3.22706E-004	7	..........a	-327.68
	96	0.97	-1.33338E-001	-1.82438E-001	-1.57888E-001	-2.90911E-007	3.32041E-007	-6.22952E-007	-1.83000E-001	3.02706E-004	7	..........a	-327.68
	97	0.98	-1.31356E-001	-1.80454E-001	-1.55905E-001	-2.90177E-007	3.29840E-007	-6.20018E-007	-1.81000E-001	3.32706E-004	7	..........a	-327.68
	98	0.99	-1.29288E-001	-1.78499E-001	-1.53893E-001	-2.88111E-007	3.32041E-007	-6.20151E-007	-1.79000E-001	3.09373E-004	7	..........a	-327.68
	99	1	-1.27379E-001	-1.76509E-001	-1.51944E-001	-2.89344E-007	3.32707E-007	-6.22051E-007	-1.77000E-001	2.99373E-004	7	..........a	-327.68
	100	1.01	-1.25356E-001	-1.74448E-001	-1.49902E-001	-2.87577E-007	3.33974E-007	-6.21551E-007	-1.75000E-001	3.52706E-004	7	..........a	-327.68
