EXPLAIN
TAG	SQUARE_WAVE
TITLE	LABEL	Square Wave Voltammetry	Test Identifier
DATE	LABEL	8/10/2020	Date
TIME	LABEL	15:20:09	Time
NOTES	NOTES	1	Notes...
	 STD3 0.1 fg/mL 08102
PSTAT	PSTAT	REF600-24079	Potentiostat
VINIT	QUANT	-3.50000E-001	Initial E (V)
VFINAL	QUANT	-1.50000E-001	Final E (V)
STEPSIZE	QUANT	2.00000E+000	Step Size (mV)
TIMERRES	QUANT	3.33340E-005	&Timer Resolution
FREQUENCY	QUANT	1.00000E+001	Frequency (Hz)
PULSESIZE	QUANT	2.50000E+001	Pulse Size E (mV)
PULSEON	QUANT	1.00000E-001	Pulse &Time (s)
NOISEREJECT	TOGGLE	F	Noise Rejection
AREA	QUANT	2.00000E-002	Sample Area (cm^2)
IMODE	SELECTOR	1	I/E Range Mode
IRANGE	QUANT	1.00000E-003	Max Current (mA)
EQDELAY	IQUANT	10	Equil. Time (s)
IRCOMP	SELECTOR	0	IRComp
PFCOR	QUANT	5.00000E+001	PF Corr. (ohm)
CYCLES	IQUANT	101	C&ycles (#)
ELECTRODETYPE	SELECTOR	0	Electrode Type
STRIPPING	TOGGLE	F	Used for Stripping
POLARITY	TOGGLE	F	Signal Polarity
LINEFREQ	IQUANT	60	Line Frequency (Hz)
INTPERIOD	QUANT	3.3334E-005	Integration Period (s)
SEQUENCER	TOGGLE	TRUE	Run as Sequence
PSTATMODEL	IQUANT	4	Pstat Model
PSTATSECTION	LABEL	REF600-24079	Pstat Section
PSTATSERIALNO	LABEL	24079	Pstat Serial Number
CTRLMODE	IQUANT	1	Control Mode
ELECTROMETER	IQUANT	0	RE=0 or CS=1
IESTAB	IQUANT	2	I/E Stability
CASPEED	IQUANT	6	Control Amp Speed
CONVENTION	IQUANT	1	Current Convention
ICHRANGE	IQUANT	2	Ich Range
ICHRANGEMODE	TOGGLE	F	Ich Auto Range
ICHOFFSETENABLE	TOGGLE	F	Ich Offset Enable
ICHOFFSET	QUANT	0	Ich Offset (V)
ICHFILTER	IQUANT	2	Ich Filter
VCHRANGE	IQUANT	2	Vch Range
VCHRANGEMODE	TOGGLE	F	Vch Auto Range
VCHOFFSETENABLE	TOGGLE	F	Vch Offset Enable
VCHOFFSET	QUANT	0	Vch Offset (V)
VCHFILTER	IQUANT	2	Vch Filter
ACHRANGE	IQUANT	2	Ach Range
ACHOFFSETENABLE	TOGGLE	F	Ach Offset Enable
ACHOFFSET	QUANT	0	Ach Offset (V)
ACHFILTER	IQUANT	1	Ach Filter
IERANGELOWERLIMIT	IQUANT	1	I/E Range Lower Limit
IERANGEMODE	TOGGLE	F	I/E AutoRange
IERANGE	IQUANT	6	I/E Range
POSFEEDENABLE	TOGGLE	F	Positive Feedback IR Comp
POSFEEDRESISTANCE	QUANT	0	Positive Feedback Resistance (ohm)
ACHSELECT	IQUANT	0	Ach Select
SENSECABLEID	IQUANT	13	Sense Cable ID
PWRCABLEID	IQUANT	13	Power Cable ID
DCCALDATE	LABEL	6/30/2020	DC Calibration Date
ACCALDATE	LABEL	6/30/2020	AC Calibration Date
THERMOSELECT	IQUANT	1	Thermo Select
FRAMEWORKVERSION	LABEL	7.8.2	Framework Version
INSTRUMENTVERSION	LABEL	4.40	Instrument Version
CURVE	TABLE	101
	Pt	T	Vfwd	Vrev	Vstep	Ifwd	Irev	Idif	Sig	Ach	IERange	Over	Temp
	#	s	V	V	V	A	A	A	V	V	#	bits	deg C
	0	0.1	-3.24856E-001	-3.74872E-001	-3.49864E-001	-5.58192E-008	-1.08341E-007	5.25214E-008	-3.75000E-001	4.23873E-004	6	..........a	-327.68
	1	0.2	-3.22837E-001	-3.72879E-001	-3.47858E-001	-4.22665E-008	-1.02424E-007	6.01576E-008	-3.73000E-001	4.06373E-004	6	..........a	-327.68
	2	0.3	-3.20870E-001	-3.70777E-001	-3.45823E-001	-3.91561E-008	-9.98111E-008	6.06551E-008	-3.71000E-001	4.10706E-004	6	..........a	-327.68
	3	0.4	-3.18875E-001	-3.68882E-001	-3.43879E-001	-3.72508E-008	-9.77509E-008	6.05000E-008	-3.69000E-001	4.15873E-004	6	..........a	-327.68
	4	0.5	-3.16723E-001	-3.66912E-001	-3.41818E-001	-3.59607E-008	-9.59410E-008	5.99803E-008	-3.67000E-001	4.04206E-004	6	..........a	-327.68
	5	0.6	-3.14862E-001	-3.64843E-001	-3.39853E-001	-3.48959E-008	-9.43484E-008	5.94526E-008	-3.65000E-001	3.89373E-004	6	..........a	-327.68
	6	0.7	-3.12889E-001	-3.62806E-001	-3.37847E-001	-3.34627E-008	-9.27089E-008	5.92462E-008	-3.63000E-001	4.10706E-004	6	..........a	-327.68
	7	0.8	-3.10880E-001	-3.60862E-001	-3.35871E-001	-3.24315E-008	-9.12664E-008	5.88348E-008	-3.61000E-001	4.04206E-004	6	..........a	-327.68
	8	0.9	-3.08821E-001	-3.58874E-001	-3.33848E-001	-3.15801E-008	-8.97795E-008	5.81994E-008	-3.59000E-001	4.07873E-004	6	..........a	-327.68
	9	1	-3.06824E-001	-3.56788E-001	-3.31806E-001	-3.07263E-008	-8.85877E-008	5.78614E-008	-3.57000E-001	3.98539E-004	6	..........a	-327.68
	10	1.1	-3.04847E-001	-3.54823E-001	-3.29835E-001	-2.95495E-008	-8.70271E-008	5.74776E-008	-3.55000E-001	4.12373E-004	6	..........a	-327.68
	11	1.2	-3.02887E-001	-3.52878E-001	-3.27883E-001	-2.85330E-008	-8.59560E-008	5.74230E-008	-3.53000E-001	3.94873E-004	6	..........a	-327.68
	12	1.3	-3.00857E-001	-3.50876E-001	-3.25866E-001	-2.75109E-008	-8.46318E-008	5.71209E-008	-3.51000E-001	4.08206E-004	6	..........a	-327.68
	13	1.4	-2.98837E-001	-3.48869E-001	-3.23853E-001	-2.66975E-008	-8.33867E-008	5.66892E-008	-3.49000E-001	4.06873E-004	6	..........a	-327.68
	14	1.5	-2.96871E-001	-3.46857E-001	-3.21864E-001	-2.54957E-008	-8.21535E-008	5.66579E-008	-3.47000E-001	3.98206E-004	6	..........a	-327.68
	15	1.6	-2.94868E-001	-3.44911E-001	-3.19889E-001	-2.46295E-008	-8.10657E-008	5.64362E-008	-3.45000E-001	4.12206E-004	6	..........a	-327.68
	16	1.7	-2.92748E-001	-3.42893E-001	-3.17820E-001	-2.37398E-008	-7.99919E-008	5.62522E-008	-3.43000E-001	4.01706E-004	6	..........a	-327.68
	17	1.8	-2.90801E-001	-3.40870E-001	-3.15836E-001	-2.29083E-008	-7.88244E-008	5.59161E-008	-3.41000E-001	3.99206E-004	6	..........a	-327.68
	18	1.9	-2.88906E-001	-3.38834E-001	-3.13870E-001	-2.20379E-008	-7.77566E-008	5.57188E-008	-3.39000E-001	4.07039E-004	6	..........a	-327.68
	19	2	-2.86876E-001	-3.36872E-001	-3.11874E-001	-2.11288E-008	-7.65655E-008	5.54367E-008	-3.37000E-001	4.04873E-004	6	..........a	-327.68
	20	2.1	-2.84810E-001	-3.34885E-001	-3.09848E-001	-2.03657E-008	-7.57607E-008	5.53950E-008	-3.35000E-001	4.10873E-004	6	..........a	-327.68
	21	2.2	-2.82806E-001	-3.32819E-001	-3.07813E-001	-1.94099E-008	-7.48319E-008	5.54220E-008	-3.33000E-001	4.16039E-004	6	..........a	-327.68
	22	2.3	-2.80901E-001	-3.30804E-001	-3.05852E-001	-1.85318E-008	-7.37675E-008	5.52357E-008	-3.31000E-001	4.15706E-004	6	..........a	-327.68
	23	2.4	-2.78871E-001	-3.28869E-001	-3.03870E-001	-1.75520E-008	-7.28677E-008	5.53157E-008	-3.29000E-001	4.21039E-004	6	..........a	-327.68
	24	2.5	-2.76819E-001	-3.26882E-001	-3.01851E-001	-1.65562E-008	-7.20376E-008	5.54814E-008	-3.27000E-001	4.15206E-004	6	..........a	-327.68
	25	2.6	-2.74840E-001	-3.24859E-001	-2.99850E-001	-1.54400E-008	-7.12962E-008	5.58561E-008	-3.25000E-001	4.24206E-004	6	..........a	-327.68
	26	2.7	-2.72868E-001	-3.22848E-001	-2.97858E-001	-1.48280E-008	-7.00970E-008	5.52690E-008	-3.23000E-001	4.00206E-004	6	..........a	-327.68
	27	2.8	-2.70859E-001	-3.20859E-001	-2.95859E-001	-1.39372E-008	-6.95149E-008	5.55777E-008	-3.21000E-001	4.08539E-004	6	..........a	-327.68
	28	2.9	-2.68868E-001	-3.18857E-001	-2.93863E-001	-1.28684E-008	-6.87625E-008	5.58941E-008	-3.19000E-001	4.24539E-004	6	..........a	-327.68
	29	3	-2.66802E-001	-3.16795E-001	-2.91798E-001	-1.21706E-008	-6.80081E-008	5.58374E-008	-3.17000E-001	4.23373E-004	6	..........a	-327.68
	30	3.1	-2.64883E-001	-3.14872E-001	-2.89877E-001	-1.12352E-008	-6.71466E-008	5.59114E-008	-3.15000E-001	4.26706E-004	6	..........a	-327.68
	31	3.2	-2.62895E-001	-3.12892E-001	-2.87893E-001	-1.03424E-008	-6.64819E-008	5.61395E-008	-3.13000E-001	4.12873E-004	6	..........a	-327.68
	32	3.3	-2.60758E-001	-3.10870E-001	-2.85814E-001	-9.25893E-009	-6.59048E-008	5.66459E-008	-3.11000E-001	4.25039E-004	6	..........a	-327.68
	33	3.4	-2.58820E-001	-3.08789E-001	-2.83804E-001	-8.60318E-009	-6.52527E-008	5.66495E-008	-3.09000E-001	4.12539E-004	6	..........a	-327.68
	34	3.5	-2.56861E-001	-3.06837E-001	-2.81849E-001	-7.71006E-009	-6.47617E-008	5.70516E-008	-3.07000E-001	4.18206E-004	6	..........a	-327.68
	35	3.6	-2.54887E-001	-3.04880E-001	-2.79884E-001	-7.04031E-009	-6.41923E-008	5.71519E-008	-3.05000E-001	4.20373E-004	6	..........a	-327.68
	36	3.7	-2.52833E-001	-3.02883E-001	-2.77858E-001	-6.15820E-009	-6.35768E-008	5.74186E-008	-3.03000E-001	4.06873E-004	6	..........a	-327.68
	37	3.8	-2.50821E-001	-3.00871E-001	-2.75846E-001	-5.52812E-009	-6.29058E-008	5.73776E-008	-3.01000E-001	4.15206E-004	6	..........a	-327.68
	38	3.9	-2.48864E-001	-2.98851E-001	-2.73857E-001	-4.90837E-009	-6.23204E-008	5.74120E-008	-2.99000E-001	4.18373E-004	6	..........a	-327.68
	39	4	-2.46871E-001	-2.96859E-001	-2.71865E-001	-4.27896E-009	-6.17953E-008	5.75163E-008	-2.97000E-001	4.09539E-004	6	..........a	-327.68
	40	4.1	-2.44875E-001	-2.94852E-001	-2.69864E-001	-3.41485E-009	-6.14206E-008	5.80057E-008	-2.95000E-001	4.20873E-004	6	..........a	-327.68
	41	4.2	-2.42776E-001	-2.92779E-001	-2.67777E-001	-2.90712E-009	-6.07155E-008	5.78084E-008	-2.93000E-001	4.15039E-004	6	..........a	-327.68
	42	4.3	-2.40868E-001	-2.90805E-001	-2.65836E-001	-2.41439E-009	-6.02858E-008	5.78714E-008	-2.91000E-001	4.14206E-004	6	..........a	-327.68
	43	4.4	-2.38904E-001	-2.88913E-001	-2.63908E-001	-1.78964E-009	-5.98640E-008	5.80744E-008	-2.89000E-001	4.18206E-004	6	..........a	-327.68
	44	4.5	-2.36863E-001	-2.86864E-001	-2.61864E-001	-1.50194E-009	-5.92170E-008	5.77150E-008	-2.87000E-001	4.04039E-004	6	..........a	-327.68
	45	4.6	-2.34807E-001	-2.84841E-001	-2.59824E-001	-8.48525E-010	-5.85055E-008	5.76570E-008	-2.85000E-001	4.18873E-004	6	..........a	-327.68
	46	4.7	-2.32849E-001	-2.82816E-001	-2.57833E-001	-5.57488E-010	-5.81545E-008	5.75970E-008	-2.83000E-001	4.09373E-004	6	..........a	-327.68
	47	4.8	-2.30859E-001	-2.80895E-001	-2.55877E-001	-1.58437E-010	-5.74417E-008	5.72833E-008	-2.81000E-001	4.03373E-004	6	..........a	-327.68
	48	4.9	-2.28788E-001	-2.78871E-001	-2.53829E-001	5.62572E-011	-5.68110E-008	5.68672E-008	-2.79000E-001	4.06873E-004	6	..........a	-327.68
	49	5	-2.26809E-001	-2.76855E-001	-2.51832E-001	5.10315E-010	-5.59662E-008	5.64765E-008	-2.77000E-001	4.00373E-004	6	..........a	-327.68
	50	5.1	-2.24864E-001	-2.74832E-001	-2.49848E-001	7.76349E-010	-5.53525E-008	5.61288E-008	-2.75000E-001	4.18206E-004	6	..........a	-327.68
	51	5.2	-2.22876E-001	-2.72867E-001	-2.47872E-001	1.05338E-009	-5.46300E-008	5.56834E-008	-2.73000E-001	4.02206E-004	6	..........a	-327.68
	52	5.3	-2.20863E-001	-2.70843E-001	-2.45853E-001	1.51544E-009	-5.40040E-008	5.55194E-008	-2.71000E-001	3.95539E-004	6	..........a	-327.68
	53	5.4	-2.18853E-001	-2.68868E-001	-2.43861E-001	1.57745E-009	-5.32102E-008	5.47876E-008	-2.69000E-001	4.16539E-004	6	..........a	-327.68
	54	5.5	-2.16863E-001	-2.66791E-001	-2.41827E-001	1.97984E-009	-5.24594E-008	5.44393E-008	-2.67000E-001	4.04039E-004	6	..........a	-327.68
	55	5.6	-2.14893E-001	-2.64906E-001	-2.39900E-001	2.06085E-009	-5.17153E-008	5.37762E-008	-2.65000E-001	3.91373E-004	6	..........a	-327.68
	56	5.7	-2.12832E-001	-2.62891E-001	-2.37862E-001	2.43456E-009	-5.08426E-008	5.32771E-008	-2.63000E-001	4.05873E-004	6	..........a	-327.68
	57	5.8	-2.10850E-001	-2.60842E-001	-2.35846E-001	2.67192E-009	-5.02228E-008	5.28947E-008	-2.61000E-001	3.94206E-004	6	..........a	-327.68
	58	5.9	-2.08860E-001	-2.58820E-001	-2.33840E-001	2.92596E-009	-4.92713E-008	5.21973E-008	-2.59000E-001	3.95873E-004	6	..........a	-327.68
	59	6	-2.06886E-001	-2.56871E-001	-2.31878E-001	3.11165E-009	-4.85383E-008	5.16499E-008	-2.57000E-001	3.93039E-004	6	..........a	-327.68
	60	6.1	-2.04806E-001	-2.54886E-001	-2.29846E-001	3.45802E-009	-4.79955E-008	5.14535E-008	-2.55000E-001	3.93039E-004	6	..........a	-327.68
	61	6.2	-2.02804E-001	-2.52870E-001	-2.27837E-001	3.75039E-009	-4.72101E-008	5.09605E-008	-2.53000E-001	3.95373E-004	6	..........a	-327.68
	62	6.3	-2.00882E-001	-2.50835E-001	-2.25859E-001	3.90108E-009	-4.61590E-008	5.00600E-008	-2.51000E-001	3.75039E-004	6	..........a	-327.68
	63	6.4	-1.98892E-001	-2.48873E-001	-2.23882E-001	4.29380E-009	-4.55442E-008	4.98380E-008	-2.49000E-001	3.97039E-004	6	..........a	-327.68
	64	6.5	-1.96865E-001	-2.46868E-001	-2.21866E-001	4.32080E-009	-4.46911E-008	4.90119E-008	-2.47000E-001	3.78706E-004	6	..........a	-327.68
	65	6.6	-1.94847E-001	-2.44877E-001	-2.19862E-001	4.77719E-009	-4.40047E-008	4.87819E-008	-2.45000E-001	3.86206E-004	6	..........a	-327.68
	66	6.7	-1.92888E-001	-2.42787E-001	-2.17837E-001	5.24192E-009	-4.32549E-008	4.84968E-008	-2.43000E-001	3.99706E-004	6	..........a	-327.68
	67	6.8	-1.90880E-001	-2.40898E-001	-2.15889E-001	5.47361E-009	-4.25745E-008	4.80481E-008	-2.41000E-001	3.80706E-004	6	..........a	-327.68
	68	6.9	-1.88746E-001	-2.38901E-001	-2.13823E-001	5.68931E-009	-4.20084E-008	4.76977E-008	-2.39000E-001	3.87539E-004	6	..........a	-327.68
	69	7	-1.86830E-001	-2.36862E-001	-2.11846E-001	5.97401E-009	-4.10570E-008	4.70310E-008	-2.37000E-001	3.76539E-004	6	..........a	-327.68
	70	7.1	-1.84904E-001	-2.34809E-001	-2.09856E-001	6.18137E-009	-4.05882E-008	4.67696E-008	-2.35000E-001	3.92873E-004	6	..........a	-327.68
	71	7.2	-1.82873E-001	-2.32877E-001	-2.07875E-001	6.51675E-009	-3.99288E-008	4.64456E-008	-2.33000E-001	3.86873E-004	6	..........a	-327.68
	72	7.3	-1.80796E-001	-2.30873E-001	-2.05834E-001	6.75778E-009	-3.93341E-008	4.60919E-008	-2.31000E-001	3.83706E-004	6	..........a	-327.68
	73	7.4	-1.78796E-001	-2.28719E-001	-2.03758E-001	7.10915E-009	-3.86970E-008	4.58062E-008	-2.29000E-001	3.67706E-004	6	..........a	-327.68
	74	7.5	-1.76843E-001	-2.26822E-001	-2.01833E-001	7.64222E-009	-3.78966E-008	4.55388E-008	-2.27000E-001	3.87206E-004	6	..........a	-327.68
	75	7.6	-1.74880E-001	-2.24872E-001	-1.99876E-001	7.82858E-009	-3.74869E-008	4.53154E-008	-2.25000E-001	3.93873E-004	6	..........a	-327.68
	76	7.7	-1.72828E-001	-2.22870E-001	-1.97849E-001	8.05227E-009	-3.70975E-008	4.51497E-008	-2.23000E-001	3.73873E-004	6	..........a	-327.68
	77	7.8	-1.70819E-001	-2.20861E-001	-1.95840E-001	8.31831E-009	-3.64017E-008	4.47200E-008	-2.21000E-001	3.74039E-004	6	..........a	-327.68
	78	7.9	-1.68870E-001	-2.18857E-001	-1.93863E-001	8.94739E-009	-3.61170E-008	4.50644E-008	-2.19000E-001	3.85706E-004	6	..........a	-327.68
	79	8	-1.66893E-001	-2.16850E-001	-1.91872E-001	9.03373E-009	-3.55026E-008	4.45363E-008	-2.17000E-001	3.80206E-004	6	..........a	-327.68
	80	8.1	-1.64790E-001	-2.14908E-001	-1.89849E-001	9.27476E-009	-3.49889E-008	4.42636E-008	-2.15000E-001	3.69539E-004	6	..........a	-327.68
	81	8.2	-1.62778E-001	-2.12840E-001	-1.87809E-001	9.71682E-009	-3.45131E-008	4.42300E-008	-2.13000E-001	3.82373E-004	6	..........a	-327.68
	82	8.3	-1.60899E-001	-2.10862E-001	-1.85880E-001	9.79750E-009	-3.38807E-008	4.36782E-008	-2.11000E-001	3.77373E-004	6	..........a	-327.68
	83	8.4	-1.58871E-001	-2.08868E-001	-1.83869E-001	1.01749E-008	-3.34053E-008	4.35802E-008	-2.09000E-001	3.74706E-004	6	..........a	-327.68
	84	8.5	-1.56771E-001	-2.06884E-001	-1.81827E-001	1.04832E-008	-3.31183E-008	4.36015E-008	-2.07000E-001	3.71539E-004	6	..........a	-327.68
	85	8.6	-1.54777E-001	-2.04825E-001	-1.79801E-001	1.07726E-008	-3.26179E-008	4.33905E-008	-2.05000E-001	3.80706E-004	6	..........a	-327.68
	86	8.7	-1.52860E-001	-2.02825E-001	-1.77842E-001	1.10493E-008	-3.23365E-008	4.33859E-008	-2.03000E-001	3.66873E-004	6	..........a	-327.68
	87	8.8	-1.50870E-001	-2.00871E-001	-1.75871E-001	1.14854E-008	-3.18245E-008	4.33098E-008	-2.01000E-001	3.70706E-004	6	..........a	-327.68
	88	8.9	-1.48819E-001	-1.98885E-001	-1.73852E-001	1.15604E-008	-3.15288E-008	4.30892E-008	-1.99000E-001	3.75706E-004	6	..........a	-327.68
	89	9	-1.46830E-001	-1.96869E-001	-1.71850E-001	1.19114E-008	-3.12807E-008	4.31922E-008	-1.97000E-001	3.75873E-004	6	..........a	-327.68
	90	9.1	-1.44864E-001	-1.94860E-001	-1.69862E-001	1.21855E-008	-3.07533E-008	4.29388E-008	-1.95000E-001	3.91706E-004	6	..........a	-327.68
	91	9.2	-1.42891E-001	-1.92873E-001	-1.67882E-001	1.25045E-008	-3.01989E-008	4.27034E-008	-1.93000E-001	3.75373E-004	6	..........a	-327.68
	92	9.3	-1.40865E-001	-1.90887E-001	-1.65876E-001	1.27259E-008	-2.99749E-008	4.27008E-008	-1.91000E-001	3.70539E-004	6	..........a	-327.68
	93	9.4	-1.38789E-001	-1.88766E-001	-1.63777E-001	1.30612E-008	-2.94772E-008	4.25384E-008	-1.89000E-001	3.84873E-004	6	..........a	-327.68
	94	9.5	-1.36874E-001	-1.86833E-001	-1.61854E-001	1.32999E-008	-2.92035E-008	4.25034E-008	-1.87000E-001	3.97039E-004	6	..........a	-327.68
	95	9.6	-1.34904E-001	-1.84901E-001	-1.59902E-001	1.36540E-008	-2.88924E-008	4.25464E-008	-1.85000E-001	3.79039E-004	6	..........a	-327.68
	96	9.7	-1.32753E-001	-1.82875E-001	-1.57814E-001	1.39817E-008	-2.84980E-008	4.24797E-008	-1.83000E-001	3.89206E-004	6	..........a	-327.68
	97	9.8	-1.30791E-001	-1.80798E-001	-1.55795E-001	1.40280E-008	-2.82873E-008	4.23154E-008	-1.81000E-001	3.83206E-004	6	..........a	-327.68
	98	9.9	-1.28825E-001	-1.78810E-001	-1.53817E-001	1.42634E-008	-2.76849E-008	4.19483E-008	-1.79000E-001	3.84873E-004	6	..........a	-327.68
	99	10	-1.26890E-001	-1.76852E-001	-1.51871E-001	1.45901E-008	-2.75193E-008	4.21094E-008	-1.77000E-001	3.88539E-004	6	..........a	-327.68
	100	10.1	-1.24788E-001	-1.74874E-001	-1.49831E-001	1.49532E-008	-2.73702E-008	4.23234E-008	-1.75000E-001	3.86873E-004	6	..........a	-327.68
