EXPLAIN
TAG	SQUARE_WAVE
TITLE	LABEL	Square Wave Voltammetry	Test Identifier
DATE	LABEL	8/10/2020	Date
TIME	LABEL	16:41:45	Time
NOTES	NOTES	1	Notes...
	
PSTAT	PSTAT	REF600-24079	Potentiostat
VINIT	QUANT	-3.50000E-001	Initial E (V)
VFINAL	QUANT	-1.50000E-001	Final E (V)
STEPSIZE	QUANT	2.00000E+000	Step Size (mV)
TIMERRES	QUANT	3.33340E-005	&Timer Resolution
FREQUENCY	QUANT	3.00000E+002	Frequency (Hz)
PULSESIZE	QUANT	2.50000E+001	Pulse Size E (mV)
PULSEON	QUANT	3.33333E-003	Pulse &Time (s)
NOISEREJECT	TOGGLE	F	Noise Rejection
AREA	QUANT	2.00000E-002	Sample Area (cm^2)
IMODE	SELECTOR	1	I/E Range Mode
IRANGE	QUANT	1.00000E-002	Max Current (mA)
EQDELAY	IQUANT	10	Equil. Time (s)
IRCOMP	SELECTOR	0	IRComp
PFCOR	QUANT	5.00000E+001	PF Corr. (ohm)
CYCLES	IQUANT	101	C&ycles (#)
ELECTRODETYPE	SELECTOR	0	Electrode Type
STRIPPING	TOGGLE	F	Used for Stripping
POLARITY	TOGGLE	F	Signal Polarity
LINEFREQ	IQUANT	60	Line Frequency (Hz)
INTPERIOD	QUANT	3.3334E-005	Integration Period (s)
SEQUENCER	TOGGLE	TRUE	Run as Sequence
PSTATMODEL	IQUANT	4	Pstat Model
PSTATSECTION	LABEL	REF600-24079	Pstat Section
PSTATSERIALNO	LABEL	24079	Pstat Serial Number
CTRLMODE	IQUANT	1	Control Mode
ELECTROMETER	IQUANT	0	RE=0 or CS=1
IESTAB	IQUANT	2	I/E Stability
CASPEED	IQUANT	6	Control Amp Speed
CONVENTION	IQUANT	1	Current Convention
ICHRANGE	IQUANT	2	Ich Range
ICHRANGEMODE	TOGGLE	F	Ich Auto Range
ICHOFFSETENABLE	TOGGLE	F	Ich Offset Enable
ICHOFFSET	QUANT	0	Ich Offset (V)
ICHFILTER	IQUANT	1	Ich Filter
VCHRANGE	IQUANT	2	Vch Range
VCHRANGEMODE	TOGGLE	F	Vch Auto Range
VCHOFFSETENABLE	TOGGLE	F	Vch Offset Enable
VCHOFFSET	QUANT	0	Vch Offset (V)
VCHFILTER	IQUANT	1	Vch Filter
ACHRANGE	IQUANT	2	Ach Range
ACHOFFSETENABLE	TOGGLE	F	Ach Offset Enable
ACHOFFSET	QUANT	0	Ach Offset (V)
ACHFILTER	IQUANT	1	Ach Filter
IERANGELOWERLIMIT	IQUANT	1	I/E Range Lower Limit
IERANGEMODE	TOGGLE	F	I/E AutoRange
IERANGE	IQUANT	7	I/E Range
POSFEEDENABLE	TOGGLE	F	Positive Feedback IR Comp
POSFEEDRESISTANCE	QUANT	0	Positive Feedback Resistance (ohm)
ACHSELECT	IQUANT	0	Ach Select
SENSECABLEID	IQUANT	13	Sense Cable ID
PWRCABLEID	IQUANT	13	Power Cable ID
DCCALDATE	LABEL	6/30/2020	DC Calibration Date
ACCALDATE	LABEL	6/30/2020	AC Calibration Date
THERMOSELECT	IQUANT	1	Thermo Select
FRAMEWORKVERSION	LABEL	7.8.2	Framework Version
INSTRUMENTVERSION	LABEL	4.40	Instrument Version
CURVE	TABLE	101
	Pt	T	Vfwd	Vrev	Vstep	Ifwd	Irev	Idif	Sig	Ach	IERange	Over	Temp
	#	s	V	V	V	A	A	A	V	V	#	bits	deg C
	0	0.003333	-3.27129E-001	-3.79769E-001	-3.53449E-001	-3.63516E-008	-7.74270E-006	7.70635E-006	-3.75000E-001	3.97706E-004	7	..........a	-327.68
	1	0.006667	-3.24524E-001	-3.75039E-001	-3.49782E-001	8.69464E-006	-8.79685E-006	1.74915E-005	-3.73000E-001	3.32706E-004	7	..........a	-327.68
	2	0.01	-3.23104E-001	-3.72999E-001	-3.48052E-001	8.61513E-006	-8.67553E-006	1.72907E-005	-3.71000E-001	3.32706E-004	7	..........a	-327.68
	3	0.013333	-3.21054E-001	-3.71039E-001	-3.46047E-001	8.61873E-006	-8.65993E-006	1.72787E-005	-3.69000E-001	3.02706E-004	7	..........a	-327.68
	4	0.016667	-3.19074E-001	-3.69029E-001	-3.44052E-001	8.63263E-006	-8.64162E-006	1.72743E-005	-3.67000E-001	3.17706E-004	7	..........a	-327.68
	5	0.02	-3.17034E-001	-3.67024E-001	-3.42029E-001	8.64083E-006	-8.63102E-006	1.72719E-005	-3.65000E-001	3.32706E-004	7	..........a	-327.68
	6	0.023333	-3.15069E-001	-3.65089E-001	-3.40079E-001	8.64373E-006	-8.61882E-006	1.72626E-005	-3.63000E-001	4.07706E-004	7	..........a	-327.68
	7	0.026667	-3.13044E-001	-3.63104E-001	-3.38074E-001	8.64653E-006	-8.61282E-006	1.72594E-005	-3.61000E-001	3.67706E-004	7	..........a	-327.68
	8	0.03	-3.11034E-001	-3.61034E-001	-3.36034E-001	8.65063E-006	-8.60122E-006	1.72519E-005	-3.59000E-001	3.77706E-004	7	..........a	-327.68
	9	0.033333	-3.09059E-001	-3.59059E-001	-3.34059E-001	8.64753E-006	-8.59462E-006	1.72421E-005	-3.57000E-001	3.42706E-004	7	..........a	-327.68
	10	0.036667	-3.07054E-001	-3.57044E-001	-3.32049E-001	8.65463E-006	-8.58792E-006	1.72425E-005	-3.55000E-001	3.37706E-004	7	..........a	-327.68
	11	0.04	-3.04994E-001	-3.55009E-001	-3.30002E-001	8.65083E-006	-8.58212E-006	1.72329E-005	-3.53000E-001	3.37706E-004	7	..........a	-327.68
	12	0.043333	-3.03044E-001	-3.53074E-001	-3.28059E-001	8.65303E-006	-8.57262E-006	1.72256E-005	-3.51000E-001	3.27706E-004	7	..........a	-327.68
	13	0.046667	-3.01044E-001	-3.51074E-001	-3.26059E-001	8.65113E-006	-8.56651E-006	1.72176E-005	-3.49000E-001	3.52706E-004	7	..........a	-327.68
	14	0.05	-2.99024E-001	-3.49059E-001	-3.24042E-001	8.65723E-006	-8.56411E-006	1.72213E-005	-3.47000E-001	3.37706E-004	7	..........a	-327.68
	15	0.053333	-2.97019E-001	-3.47034E-001	-3.22027E-001	8.65593E-006	-8.55531E-006	1.72112E-005	-3.45000E-001	3.22706E-004	7	..........a	-327.68
	16	0.056667	-2.95004E-001	-3.45084E-001	-3.20044E-001	8.65483E-006	-8.55151E-006	1.72063E-005	-3.43000E-001	3.37706E-004	7	..........a	-327.68
	17	0.06	-2.93024E-001	-3.43084E-001	-3.18054E-001	8.65983E-006	-8.54331E-006	1.72031E-005	-3.41000E-001	3.07706E-004	7	..........a	-327.68
	18	0.063333	-2.91039E-001	-3.41084E-001	-3.16062E-001	8.66003E-006	-8.54211E-006	1.72021E-005	-3.39000E-001	3.17706E-004	7	..........a	-327.68
	19	0.066667	-2.88989E-001	-3.39084E-001	-3.14037E-001	8.66143E-006	-8.53521E-006	1.71966E-005	-3.37000E-001	3.52706E-004	7	..........a	-327.68
	20	0.07	-2.87019E-001	-3.37069E-001	-3.12044E-001	8.66213E-006	-8.53331E-006	1.71954E-005	-3.35000E-001	3.27706E-004	7	..........a	-327.68
	21	0.073333	-2.84984E-001	-3.35114E-001	-3.10049E-001	8.66183E-006	-8.52661E-006	1.71884E-005	-3.33000E-001	3.77706E-004	7	..........a	-327.68
	22	0.076667	-2.83019E-001	-3.33074E-001	-3.08047E-001	8.66053E-006	-8.52411E-006	1.71846E-005	-3.31000E-001	3.97706E-004	7	..........a	-327.68
	23	0.08	-2.81034E-001	-3.31064E-001	-3.06049E-001	8.66663E-006	-8.52331E-006	1.71899E-005	-3.29000E-001	3.62706E-004	7	..........a	-327.68
	24	0.083333	-2.78984E-001	-3.29059E-001	-3.04022E-001	8.66263E-006	-8.51781E-006	1.71804E-005	-3.27000E-001	3.42706E-004	7	..........a	-327.68
	25	0.086667	-2.77044E-001	-3.27074E-001	-3.02059E-001	8.66963E-006	-8.51551E-006	1.71851E-005	-3.25000E-001	3.37706E-004	7	..........a	-327.68
	26	0.09	-2.74999E-001	-3.25089E-001	-3.00044E-001	8.66303E-006	-8.51061E-006	1.71736E-005	-3.23000E-001	3.52706E-004	7	..........a	-327.68
	27	0.093333	-2.72964E-001	-3.23089E-001	-2.98027E-001	8.66983E-006	-8.50731E-006	1.71771E-005	-3.21000E-001	3.47706E-004	7	..........a	-327.68
	28	0.096667	-2.70984E-001	-3.21039E-001	-2.96012E-001	8.66993E-006	-8.50871E-006	1.71786E-005	-3.19000E-001	3.57706E-004	7	..........a	-327.68
	29	0.1	-2.69039E-001	-3.19079E-001	-2.94059E-001	8.67814E-006	-8.50421E-006	1.71823E-005	-3.17000E-001	4.07706E-004	7	..........a	-327.68
	30	0.103333	-2.66964E-001	-3.17134E-001	-2.92049E-001	8.67473E-006	-8.49701E-006	1.71717E-005	-3.15000E-001	3.62706E-004	7	..........a	-327.68
	31	0.106667	-2.65039E-001	-3.15084E-001	-2.90062E-001	8.67554E-006	-8.49800E-006	1.71735E-005	-3.13000E-001	3.37706E-004	7	..........a	-327.68
	32	0.11	-2.63044E-001	-3.13079E-001	-2.88062E-001	8.67934E-006	-8.49170E-006	1.71710E-005	-3.11000E-001	3.27706E-004	7	..........a	-327.68
	33	0.113333	-2.61034E-001	-3.11049E-001	-2.86042E-001	8.68064E-006	-8.49390E-006	1.71745E-005	-3.09000E-001	3.52706E-004	7	..........a	-327.68
	34	0.116667	-2.59049E-001	-3.09059E-001	-2.84054E-001	8.68394E-006	-8.48980E-006	1.71737E-005	-3.07000E-001	3.67706E-004	7	..........a	-327.68
	35	0.12	-2.57014E-001	-3.07064E-001	-2.82039E-001	8.68004E-006	-8.48840E-006	1.71684E-005	-3.05000E-001	3.52706E-004	7	..........a	-327.68
	36	0.123333	-2.54989E-001	-3.05094E-001	-2.80042E-001	8.68744E-006	-8.48800E-006	1.71754E-005	-3.03000E-001	3.77706E-004	7	..........a	-327.68
	37	0.126667	-2.53014E-001	-3.03079E-001	-2.78047E-001	8.68604E-006	-8.48430E-006	1.71703E-005	-3.01000E-001	3.37706E-004	7	..........a	-327.68
	38	0.13	-2.51064E-001	-3.01094E-001	-2.76079E-001	8.69234E-006	-8.48270E-006	1.71750E-005	-2.99000E-001	3.87706E-004	7	..........a	-327.68
	39	0.133333	-2.49009E-001	-2.99094E-001	-2.74052E-001	8.69014E-006	-8.48180E-006	1.71719E-005	-2.97000E-001	3.92706E-004	7	..........a	-327.68
	40	0.136667	-2.47024E-001	-2.97094E-001	-2.72059E-001	8.69504E-006	-8.47710E-006	1.71721E-005	-2.95000E-001	3.47706E-004	7	..........a	-327.68
	41	0.14	-2.45044E-001	-2.95054E-001	-2.70049E-001	8.69094E-006	-8.48130E-006	1.71722E-005	-2.93000E-001	3.37706E-004	7	..........a	-327.68
	42	0.143333	-2.43084E-001	-2.93024E-001	-2.68054E-001	8.69974E-006	-8.47270E-006	1.71724E-005	-2.91000E-001	3.37706E-004	7	..........a	-327.68
	43	0.146667	-2.41034E-001	-2.91024E-001	-2.66029E-001	8.69744E-006	-8.47200E-006	1.71694E-005	-2.89000E-001	3.47706E-004	7	..........a	-327.68
	44	0.15	-2.39039E-001	-2.89104E-001	-2.64072E-001	8.70554E-006	-8.47140E-006	1.71769E-005	-2.87000E-001	3.62706E-004	7	..........a	-327.68
	45	0.153333	-2.37074E-001	-2.87039E-001	-2.62057E-001	8.70504E-006	-8.46790E-006	1.71729E-005	-2.85000E-001	3.02706E-004	7	..........a	-327.68
	46	0.156667	-2.35074E-001	-2.85019E-001	-2.60047E-001	8.70624E-006	-8.46690E-006	1.71731E-005	-2.83000E-001	3.32706E-004	7	..........a	-327.68
	47	0.16	-2.32994E-001	-2.83004E-001	-2.57999E-001	8.71004E-006	-8.46200E-006	1.71720E-005	-2.81000E-001	3.72706E-004	7	..........a	-327.68
	48	0.163333	-2.31064E-001	-2.81019E-001	-2.56042E-001	8.71004E-006	-8.45940E-006	1.71694E-005	-2.79000E-001	3.57706E-004	7	..........a	-327.68
	49	0.166667	-2.29039E-001	-2.78979E-001	-2.54009E-001	8.71194E-006	-8.45800E-006	1.71699E-005	-2.77000E-001	3.77706E-004	7	..........a	-327.68
	50	0.17	-2.27089E-001	-2.77049E-001	-2.52069E-001	8.70904E-006	-8.45630E-006	1.71653E-005	-2.75000E-001	3.37706E-004	7	..........a	-327.68
	51	0.173333	-2.25044E-001	-2.75044E-001	-2.50044E-001	8.71384E-006	-8.45500E-006	1.71688E-005	-2.73000E-001	3.47706E-004	7	..........a	-327.68
	52	0.176667	-2.23024E-001	-2.73079E-001	-2.48052E-001	8.71134E-006	-8.45270E-006	1.71640E-005	-2.71000E-001	3.22706E-004	7	..........a	-327.68
	53	0.18	-2.21069E-001	-2.71039E-001	-2.46054E-001	8.72044E-006	-8.44970E-006	1.71701E-005	-2.69000E-001	3.42706E-004	7	..........a	-327.68
	54	0.183333	-2.19044E-001	-2.69049E-001	-2.44047E-001	8.71514E-006	-8.44840E-006	1.71635E-005	-2.67000E-001	3.17706E-004	7	..........a	-327.68
	55	0.186667	-2.16969E-001	-2.67059E-001	-2.42014E-001	8.71764E-006	-8.44270E-006	1.71603E-005	-2.65000E-001	3.57706E-004	7	..........a	-327.68
	56	0.19	-2.15064E-001	-2.65054E-001	-2.40059E-001	8.71364E-006	-8.44100E-006	1.71546E-005	-2.63000E-001	4.12706E-004	7	..........a	-327.68
	57	0.193333	-2.13014E-001	-2.63064E-001	-2.38039E-001	8.72064E-006	-8.43930E-006	1.71599E-005	-2.61000E-001	3.27706E-004	7	..........a	-327.68
	58	0.196667	-2.11049E-001	-2.61079E-001	-2.36064E-001	8.71744E-006	-8.43700E-006	1.71544E-005	-2.59000E-001	3.52706E-004	7	..........a	-327.68
	59	0.2	-2.09109E-001	-2.59039E-001	-2.34074E-001	8.71964E-006	-8.43160E-006	1.71512E-005	-2.57000E-001	3.17706E-004	7	..........a	-327.68
	60	0.203333	-2.07034E-001	-2.57024E-001	-2.32029E-001	8.71704E-006	-8.42750E-006	1.71445E-005	-2.55000E-001	3.22706E-004	7	..........a	-327.68
	61	0.206667	-2.05019E-001	-2.55034E-001	-2.30027E-001	8.71694E-006	-8.42639E-006	1.71433E-005	-2.53000E-001	3.17706E-004	7	..........a	-327.68
	62	0.21	-2.03024E-001	-2.53044E-001	-2.28034E-001	8.71674E-006	-8.41809E-006	1.71348E-005	-2.51000E-001	3.27706E-004	7	..........a	-327.68
	63	0.213333	-2.01004E-001	-2.51049E-001	-2.26027E-001	8.71944E-006	-8.41929E-006	1.71387E-005	-2.49000E-001	3.42706E-004	7	..........a	-327.68
	64	0.216667	-1.99004E-001	-2.49089E-001	-2.24047E-001	8.71854E-006	-8.41539E-006	1.71339E-005	-2.47000E-001	4.07706E-004	7	..........a	-327.68
	65	0.22	-1.97039E-001	-2.47059E-001	-2.22049E-001	8.71164E-006	-8.41539E-006	1.71270E-005	-2.45000E-001	3.52706E-004	7	..........a	-327.68
	66	0.223333	-1.95064E-001	-2.45064E-001	-2.20064E-001	8.71834E-006	-8.41139E-006	1.71297E-005	-2.43000E-001	3.52706E-004	7	..........a	-327.68
	67	0.226667	-1.93049E-001	-2.43094E-001	-2.18072E-001	8.71384E-006	-8.40929E-006	1.71231E-005	-2.41000E-001	3.92706E-004	7	..........a	-327.68
	68	0.23	-1.91034E-001	-2.41024E-001	-2.16029E-001	8.72064E-006	-8.41019E-006	1.71308E-005	-2.39000E-001	3.27706E-004	7	..........a	-327.68
	69	0.233333	-1.89014E-001	-2.39059E-001	-2.14037E-001	8.71594E-006	-8.40949E-006	1.71254E-005	-2.37000E-001	3.62706E-004	7	..........a	-327.68
	70	0.236667	-1.87039E-001	-2.37034E-001	-2.12037E-001	8.71914E-006	-8.40229E-006	1.71214E-005	-2.35000E-001	3.22706E-004	7	..........a	-327.68
	71	0.24	-1.85024E-001	-2.35094E-001	-2.10059E-001	8.71534E-006	-8.39909E-006	1.71144E-005	-2.33000E-001	3.57706E-004	7	..........a	-327.68
	72	0.243333	-1.83014E-001	-2.33049E-001	-2.08032E-001	8.71994E-006	-8.40219E-006	1.71221E-005	-2.31000E-001	3.27706E-004	7	..........a	-327.68
	73	0.246667	-1.80964E-001	-2.31054E-001	-2.06009E-001	8.71994E-006	-8.39819E-006	1.71181E-005	-2.29000E-001	3.47706E-004	7	..........a	-327.68
	74	0.25	-1.79024E-001	-2.29074E-001	-2.04049E-001	8.72214E-006	-8.39899E-006	1.71211E-005	-2.27000E-001	3.87706E-004	7	..........a	-327.68
	75	0.253333	-1.77009E-001	-2.27069E-001	-2.02039E-001	8.72194E-006	-8.39439E-006	1.71163E-005	-2.25000E-001	3.77706E-004	7	..........a	-327.68
	76	0.256667	-1.75004E-001	-2.25089E-001	-2.00047E-001	8.72084E-006	-8.39419E-006	1.71150E-005	-2.23000E-001	2.97706E-004	7	..........a	-327.68
	77	0.26	-1.73039E-001	-2.23079E-001	-1.98059E-001	8.72484E-006	-8.39299E-006	1.71178E-005	-2.21000E-001	3.17706E-004	7	..........a	-327.68
	78	0.263333	-1.71004E-001	-2.21049E-001	-1.96027E-001	8.72104E-006	-8.39229E-006	1.71133E-005	-2.19000E-001	3.77706E-004	7	..........a	-327.68
	79	0.266667	-1.69009E-001	-2.19124E-001	-1.94067E-001	8.72634E-006	-8.39069E-006	1.71170E-005	-2.17000E-001	3.42706E-004	7	..........a	-327.68
	80	0.27	-1.67024E-001	-2.17019E-001	-1.92022E-001	8.72004E-006	-8.39679E-006	1.71168E-005	-2.15000E-001	3.67706E-004	7	..........a	-327.68
	81	0.273333	-1.64989E-001	-2.15074E-001	-1.90032E-001	8.73394E-006	-8.39249E-006	1.71264E-005	-2.13000E-001	3.82706E-004	7	..........a	-327.68
	82	0.276667	-1.63014E-001	-2.13069E-001	-1.88042E-001	8.72804E-006	-8.39949E-006	1.71275E-005	-2.11000E-001	3.42706E-004	7	..........a	-327.68
	83	0.28	-1.61009E-001	-2.11094E-001	-1.86052E-001	8.73394E-006	-8.39409E-006	1.71280E-005	-2.09000E-001	3.57706E-004	7	..........a	-327.68
	84	0.283333	-1.59004E-001	-2.09084E-001	-1.84044E-001	8.72724E-006	-8.39249E-006	1.71197E-005	-2.07000E-001	3.37706E-004	7	..........a	-327.68
	85	0.286667	-1.56999E-001	-2.07094E-001	-1.82047E-001	8.73204E-006	-8.39329E-006	1.71253E-005	-2.05000E-001	3.47706E-004	7	..........a	-327.68
	86	0.29	-1.55009E-001	-2.05114E-001	-1.80062E-001	8.73324E-006	-8.38869E-006	1.71219E-005	-2.03000E-001	3.27706E-004	7	..........a	-327.68
	87	0.293333	-1.52999E-001	-2.03119E-001	-1.78059E-001	8.73354E-006	-8.38609E-006	1.71196E-005	-2.01000E-001	3.82706E-004	7	..........a	-327.68
	88	0.296667	-1.51004E-001	-2.01104E-001	-1.76054E-001	8.73404E-006	-8.38619E-006	1.71202E-005	-1.99000E-001	3.92706E-004	7	..........a	-327.68
	89	0.3	-1.48994E-001	-1.99099E-001	-1.74047E-001	8.73884E-006	-8.39049E-006	1.71293E-005	-1.97000E-001	3.32706E-004	7	..........a	-327.68
	90	0.303333	-1.46999E-001	-1.97059E-001	-1.72029E-001	8.74264E-006	-8.38559E-006	1.71282E-005	-1.95000E-001	3.32706E-004	7	..........a	-327.68
	91	0.306667	-1.45024E-001	-1.95089E-001	-1.70057E-001	8.74264E-006	-8.38789E-006	1.71305E-005	-1.93000E-001	3.37706E-004	7	..........a	-327.68
	92	0.31	-1.42959E-001	-1.93059E-001	-1.68009E-001	8.74485E-006	-8.38769E-006	1.71325E-005	-1.91000E-001	2.97706E-004	7	..........a	-327.68
	93	0.313333	-1.40994E-001	-1.91119E-001	-1.66057E-001	8.74404E-006	-8.39069E-006	1.71347E-005	-1.89000E-001	3.62706E-004	7	..........a	-327.68
	94	0.316667	-1.39044E-001	-1.89094E-001	-1.64069E-001	8.75275E-006	-8.39159E-006	1.71443E-005	-1.87000E-001	2.92706E-004	7	..........a	-327.68
	95	0.32	-1.36989E-001	-1.87074E-001	-1.62032E-001	8.74715E-006	-8.39049E-006	1.71376E-005	-1.85000E-001	3.37706E-004	7	..........a	-327.68
	96	0.323333	-1.34969E-001	-1.85074E-001	-1.60022E-001	8.75825E-006	-8.39399E-006	1.71522E-005	-1.83000E-001	3.42706E-004	7	..........a	-327.68
	97	0.326667	-1.32999E-001	-1.83034E-001	-1.58017E-001	8.75385E-006	-8.39359E-006	1.71474E-005	-1.81000E-001	3.12706E-004	7	..........a	-327.68
	98	0.33	-1.31014E-001	-1.81019E-001	-1.56017E-001	8.76165E-006	-8.39239E-006	1.71540E-005	-1.79000E-001	3.92706E-004	7	..........a	-327.68
	99	0.333333	-1.29049E-001	-1.79039E-001	-1.54044E-001	8.76065E-006	-8.39159E-006	1.71522E-005	-1.77000E-001	3.27706E-004	7	..........a	-327.68
	100	0.336667	-1.27029E-001	-1.77064E-001	-1.52047E-001	8.76585E-006	-8.39849E-006	1.71643E-005	-1.75000E-001	3.67706E-004	7	..........a	-327.68
