EXPLAIN
TAG	SQUARE_WAVE
TITLE	LABEL	Square Wave Voltammetry	Test Identifier
DATE	LABEL	8/10/2020	Date
TIME	LABEL	13:20:03	Time
NOTES	NOTES	1	Notes...
	
PSTAT	PSTAT	REF600-24079	Potentiostat
VINIT	QUANT	-3.50000E-001	Initial E (V)
VFINAL	QUANT	-1.50000E-001	Final E (V)
STEPSIZE	QUANT	2.00000E+000	Step Size (mV)
TIMERRES	QUANT	3.33340E-005	&Timer Resolution
FREQUENCY	QUANT	7.50000E+001	Frequency (Hz)
PULSESIZE	QUANT	2.50000E+001	Pulse Size E (mV)
PULSEON	QUANT	1.33333E-002	Pulse &Time (s)
NOISEREJECT	TOGGLE	F	Noise Rejection
AREA	QUANT	2.00000E-002	Sample Area (cm^2)
IMODE	SELECTOR	1	I/E Range Mode
IRANGE	QUANT	1.00000E-003	Max Current (mA)
EQDELAY	IQUANT	10	Equil. Time (s)
IRCOMP	SELECTOR	0	IRComp
PFCOR	QUANT	5.00000E+001	PF Corr. (ohm)
CYCLES	IQUANT	101	C&ycles (#)
ELECTRODETYPE	SELECTOR	0	Electrode Type
STRIPPING	TOGGLE	F	Used for Stripping
POLARITY	TOGGLE	F	Signal Polarity
LINEFREQ	IQUANT	60	Line Frequency (Hz)
INTPERIOD	QUANT	3.3334E-005	Integration Period (s)
SEQUENCER	TOGGLE	TRUE	Run as Sequence
PSTATMODEL	IQUANT	4	Pstat Model
PSTATSECTION	LABEL	REF600-24079	Pstat Section
PSTATSERIALNO	LABEL	24079	Pstat Serial Number
CTRLMODE	IQUANT	1	Control Mode
ELECTROMETER	IQUANT	0	RE=0 or CS=1
IESTAB	IQUANT	2	I/E Stability
CASPEED	IQUANT	6	Control Amp Speed
CONVENTION	IQUANT	1	Current Convention
ICHRANGE	IQUANT	2	Ich Range
ICHRANGEMODE	TOGGLE	F	Ich Auto Range
ICHOFFSETENABLE	TOGGLE	F	Ich Offset Enable
ICHOFFSET	QUANT	0	Ich Offset (V)
ICHFILTER	IQUANT	2	Ich Filter
VCHRANGE	IQUANT	2	Vch Range
VCHRANGEMODE	TOGGLE	F	Vch Auto Range
VCHOFFSETENABLE	TOGGLE	F	Vch Offset Enable
VCHOFFSET	QUANT	0	Vch Offset (V)
VCHFILTER	IQUANT	2	Vch Filter
ACHRANGE	IQUANT	2	Ach Range
ACHOFFSETENABLE	TOGGLE	F	Ach Offset Enable
ACHOFFSET	QUANT	0	Ach Offset (V)
ACHFILTER	IQUANT	1	Ach Filter
IERANGELOWERLIMIT	IQUANT	1	I/E Range Lower Limit
IERANGEMODE	TOGGLE	F	I/E AutoRange
IERANGE	IQUANT	6	I/E Range
POSFEEDENABLE	TOGGLE	F	Positive Feedback IR Comp
POSFEEDRESISTANCE	QUANT	0	Positive Feedback Resistance (ohm)
ACHSELECT	IQUANT	0	Ach Select
SENSECABLEID	IQUANT	13	Sense Cable ID
PWRCABLEID	IQUANT	13	Power Cable ID
DCCALDATE	LABEL	6/30/2020	DC Calibration Date
ACCALDATE	LABEL	6/30/2020	AC Calibration Date
THERMOSELECT	IQUANT	1	Thermo Select
FRAMEWORKVERSION	LABEL	7.8.2	Framework Version
INSTRUMENTVERSION	LABEL	4.40	Instrument Version
CURVE	TABLE	101
	Pt	T	Vfwd	Vrev	Vstep	Ifwd	Irev	Idif	Sig	Ach	IERange	Over	Temp
	#	s	V	V	V	A	A	A	V	V	#	bits	deg C
	0	0.013333	-3.24857E-001	-3.86907E-001	-3.55882E-001	-2.08468E-009	-6.49865E-007	6.47780E-007	-3.75000E-001	3.95206E-004	6	..........a	-327.68
	1	0.026667	-3.08006E-001	-3.87623E-001	-3.47815E-001	4.87628E-007	-5.18895E-007	1.00652E-006	-3.73000E-001	3.98956E-004	6	..........a	-327.68
	2	0.04	-3.05562E-001	-3.85682E-001	-3.45622E-001	4.46057E-007	-4.90699E-007	9.36757E-007	-3.71000E-001	3.96456E-004	6	.....h....a	-327.68
	3	0.053333	-3.03566E-001	-3.83716E-001	-3.43641E-001	4.46612E-007	-4.83286E-007	9.29898E-007	-3.69000E-001	3.73956E-004	6	.....h....a	-327.68
	4	0.066667	-3.01573E-001	-3.81696E-001	-3.41635E-001	4.49225E-007	-4.77418E-007	9.26643E-007	-3.67000E-001	3.75206E-004	6	..........a	-327.68
	5	0.08	-2.99596E-001	-3.79678E-001	-3.39637E-001	4.50318E-007	-4.72895E-007	9.23212E-007	-3.65000E-001	3.76456E-004	6	..........a	-327.68
	6	0.093333	-2.97605E-001	-3.77693E-001	-3.37649E-001	4.49673E-007	-4.68687E-007	9.18359E-007	-3.63000E-001	3.88956E-004	6	..........a	-327.68
	7	0.106667	-2.95567E-001	-3.75723E-001	-3.35645E-001	4.51226E-007	-4.66311E-007	9.17537E-007	-3.61000E-001	3.71456E-004	6	..........a	-327.68
	8	0.12	-2.93565E-001	-3.73686E-001	-3.33625E-001	4.52118E-007	-4.63753E-007	9.15872E-007	-3.59000E-001	3.87706E-004	6	..........a	-327.68
	9	0.133333	-2.91558E-001	-3.71665E-001	-3.31612E-001	4.53068E-007	-4.61331E-007	9.14399E-007	-3.57000E-001	3.97706E-004	6	..........a	-327.68
	10	0.146667	-2.89577E-001	-3.69642E-001	-3.29610E-001	4.53048E-007	-4.59005E-007	9.12054E-007	-3.55000E-001	3.71456E-004	6	..........a	-327.68
	11	0.16	-2.87592E-001	-3.67648E-001	-3.27620E-001	4.53466E-007	-4.56240E-007	9.09706E-007	-3.53000E-001	3.87706E-004	6	..........a	-327.68
	12	0.173333	-2.85590E-001	-3.65646E-001	-3.25618E-001	4.54396E-007	-4.55017E-007	9.09413E-007	-3.51000E-001	3.82706E-004	6	..........a	-327.68
	13	0.186667	-2.83605E-001	-3.63665E-001	-3.23635E-001	4.55038E-007	-4.54787E-007	9.09826E-007	-3.49000E-001	3.78956E-004	6	..........a	-327.68
	14	0.2	-2.81612E-001	-3.61657E-001	-3.21635E-001	4.56231E-007	-4.52855E-007	9.09086E-007	-3.47000E-001	4.01456E-004	6	..........a	-327.68
	15	0.213333	-2.79622E-001	-3.59647E-001	-3.19635E-001	4.56826E-007	-4.51402E-007	9.08228E-007	-3.45000E-001	4.16456E-004	6	..........a	-327.68
	16	0.226667	-2.77632E-001	-3.57666E-001	-3.17649E-001	4.57326E-007	-4.49507E-007	9.06833E-007	-3.43000E-001	3.70206E-004	6	..........a	-327.68
	17	0.24	-2.75647E-001	-3.55668E-001	-3.15658E-001	4.59014E-007	-4.49607E-007	9.08621E-007	-3.41000E-001	4.08956E-004	6	..........a	-327.68
	18	0.253333	-2.73652E-001	-3.53691E-001	-3.13672E-001	4.61517E-007	-4.49789E-007	9.11306E-007	-3.39000E-001	3.90206E-004	6	..........a	-327.68
	19	0.266667	-2.71677E-001	-3.51685E-001	-3.11681E-001	4.63280E-007	-4.49397E-007	9.12676E-007	-3.37000E-001	4.07706E-004	6	..........a	-327.68
	20	0.28	-2.69653E-001	-3.49661E-001	-3.09657E-001	4.64912E-007	-4.49489E-007	9.14401E-007	-3.35000E-001	3.92706E-004	6	..........a	-327.68
	21	0.293333	-2.67618E-001	-3.47662E-001	-3.07640E-001	4.66187E-007	-4.49094E-007	9.15281E-007	-3.33000E-001	4.03956E-004	6	..........a	-327.68
	22	0.306667	-2.65646E-001	-3.45645E-001	-3.05645E-001	4.68888E-007	-4.50092E-007	9.18979E-007	-3.31000E-001	3.58956E-004	6	..........a	-327.68
	23	0.32	-2.63632E-001	-3.43613E-001	-3.03623E-001	4.70728E-007	-4.51059E-007	9.21787E-007	-3.29000E-001	3.56456E-004	6	..........a	-327.68
	24	0.333333	-2.61693E-001	-3.41641E-001	-3.01667E-001	4.73506E-007	-4.51439E-007	9.24945E-007	-3.27000E-001	3.90206E-004	6	..........a	-327.68
	25	0.346667	-2.59676E-001	-3.39647E-001	-2.99662E-001	4.75161E-007	-4.52227E-007	9.27388E-007	-3.25000E-001	3.77706E-004	6	..........a	-327.68
	26	0.36	-2.57678E-001	-3.37647E-001	-2.97663E-001	4.77486E-007	-4.52647E-007	9.30133E-007	-3.23000E-001	3.90206E-004	6	..........a	-327.68
	27	0.373333	-2.55668E-001	-3.35643E-001	-2.95656E-001	4.79917E-007	-4.53920E-007	9.33836E-007	-3.21000E-001	3.78956E-004	6	..........a	-327.68
	28	0.386667	-2.53690E-001	-3.33665E-001	-2.93677E-001	4.83505E-007	-4.55757E-007	9.39262E-007	-3.19000E-001	3.97706E-004	6	..........a	-327.68
	29	0.4	-2.51693E-001	-3.31668E-001	-2.91681E-001	4.86930E-007	-4.57000E-007	9.43930E-007	-3.17000E-001	4.13956E-004	6	..........a	-327.68
	30	0.413333	-2.49693E-001	-3.29652E-001	-2.89673E-001	4.88530E-007	-4.57503E-007	9.46033E-007	-3.15000E-001	3.35206E-004	6	..........a	-327.68
	31	0.426667	-2.47715E-001	-3.27651E-001	-2.87683E-001	4.90123E-007	-4.58190E-007	9.48313E-007	-3.13000E-001	3.78956E-004	6	..........a	-327.68
	32	0.44	-2.45720E-001	-3.25652E-001	-2.85686E-001	4.94386E-007	-4.61946E-007	9.56332E-007	-3.11000E-001	3.82706E-004	6	..........a	-327.68
	33	0.453333	-2.43687E-001	-3.23675E-001	-2.83681E-001	4.96954E-007	-4.63716E-007	9.60670E-007	-3.09000E-001	3.82706E-004	6	..........a	-327.68
	34	0.466667	-2.41702E-001	-3.21642E-001	-2.81672E-001	5.00934E-007	-4.64504E-007	9.65438E-007	-3.07000E-001	4.03956E-004	6	..........a	-327.68
	35	0.48	-2.39681E-001	-3.19627E-001	-2.79654E-001	5.01989E-007	-4.65356E-007	9.67346E-007	-3.05000E-001	3.91456E-004	6	..........a	-327.68
	36	0.493333	-2.37705E-001	-3.17597E-001	-2.77651E-001	5.03957E-007	-4.66389E-007	9.70346E-007	-3.03000E-001	3.67706E-004	6	..........a	-327.68
	37	0.506667	-2.35697E-001	-3.15620E-001	-2.75658E-001	5.06635E-007	-4.68354E-007	9.74989E-007	-3.01000E-001	3.80206E-004	6	..........a	-327.68
	38	0.52	-2.33707E-001	-3.13642E-001	-2.73675E-001	5.09573E-007	-4.70304E-007	9.79877E-007	-2.99000E-001	3.67706E-004	6	..........a	-327.68
	39	0.533333	-2.31665E-001	-3.11640E-001	-2.71652E-001	5.12108E-007	-4.71077E-007	9.83185E-007	-2.97000E-001	4.08956E-004	6	..........a	-327.68
	40	0.546667	-2.29720E-001	-3.09622E-001	-2.69671E-001	5.13063E-007	-4.71724E-007	9.84788E-007	-2.95000E-001	3.91456E-004	6	..........a	-327.68
	41	0.56	-2.27735E-001	-3.07622E-001	-2.67678E-001	5.13886E-007	-4.72517E-007	9.86403E-007	-2.93000E-001	3.87706E-004	6	..........a	-327.68
	42	0.573333	-2.25727E-001	-3.05617E-001	-2.65672E-001	5.15771E-007	-4.74685E-007	9.90456E-007	-2.91000E-001	3.75206E-004	6	..........a	-327.68
	43	0.586667	-2.23738E-001	-3.03628E-001	-2.63683E-001	5.17104E-007	-4.75140E-007	9.92244E-007	-2.89000E-001	3.92706E-004	6	..........a	-327.68
	44	0.6	-2.21756E-001	-3.01630E-001	-2.61693E-001	5.17819E-007	-4.74722E-007	9.92541E-007	-2.87000E-001	4.06456E-004	6	..........a	-327.68
	45	0.613333	-2.19761E-001	-2.99610E-001	-2.59685E-001	5.17351E-007	-4.73887E-007	9.91239E-007	-2.85000E-001	3.95206E-004	6	..........a	-327.68
	46	0.626667	-2.17715E-001	-2.97633E-001	-2.57674E-001	5.17164E-007	-4.74387E-007	9.91551E-007	-2.83000E-001	3.92706E-004	6	..........a	-327.68
	47	0.64	-2.15705E-001	-2.95602E-001	-2.55653E-001	5.17951E-007	-4.75167E-007	9.93119E-007	-2.81000E-001	3.75206E-004	6	..........a	-327.68
	48	0.653333	-2.13712E-001	-2.93562E-001	-2.53637E-001	5.18014E-007	-4.74310E-007	9.92324E-007	-2.79000E-001	3.96456E-004	6	..........a	-327.68
	49	0.666667	-2.11726E-001	-2.91517E-001	-2.51622E-001	5.17836E-007	-4.73420E-007	9.91256E-007	-2.77000E-001	4.07706E-004	6	..........a	-327.68
	50	0.68	-2.09722E-001	-2.89552E-001	-2.49637E-001	5.16391E-007	-4.72425E-007	9.88816E-007	-2.75000E-001	4.03956E-004	6	..........a	-327.68
	51	0.693333	-2.07713E-001	-2.87545E-001	-2.47629E-001	5.14944E-007	-4.70312E-007	9.85255E-007	-2.73000E-001	3.85206E-004	6	..........a	-327.68
	52	0.706667	-2.05732E-001	-2.85553E-001	-2.45643E-001	5.12806E-007	-4.69507E-007	9.82312E-007	-2.71000E-001	3.91456E-004	6	..........a	-327.68
	53	0.72	-2.03745E-001	-2.83535E-001	-2.43640E-001	5.12508E-007	-4.69414E-007	9.81922E-007	-2.69000E-001	3.48956E-004	6	..........a	-327.68
	54	0.733333	-2.01747E-001	-2.81535E-001	-2.41641E-001	5.10621E-007	-4.66971E-007	9.77592E-007	-2.67000E-001	3.78956E-004	6	..........a	-327.68
	55	0.746667	-1.99755E-001	-2.79556E-001	-2.39655E-001	5.08880E-007	-4.64726E-007	9.73606E-007	-2.65000E-001	3.87706E-004	6	..........a	-327.68
	56	0.76	-1.97741E-001	-2.77538E-001	-2.37640E-001	5.05915E-007	-4.61958E-007	9.67873E-007	-2.63000E-001	3.91456E-004	6	..........a	-327.68
	57	0.773333	-1.95770E-001	-2.75558E-001	-2.35664E-001	5.03550E-007	-4.60330E-007	9.63880E-007	-2.61000E-001	3.92706E-004	6	..........a	-327.68
	58	0.786667	-1.93767E-001	-2.73538E-001	-2.33653E-001	5.02164E-007	-4.58098E-007	9.60262E-007	-2.59000E-001	3.72706E-004	6	..........a	-327.68
	59	0.8	-1.91692E-001	-2.71525E-001	-2.31608E-001	4.99387E-007	-4.55970E-007	9.55357E-007	-2.57000E-001	3.98956E-004	6	..........a	-327.68
	60	0.813333	-1.89731E-001	-2.69488E-001	-2.29610E-001	4.95661E-007	-4.52604E-007	9.48266E-007	-2.55000E-001	3.81456E-004	6	..........a	-327.68
	61	0.826667	-1.87710E-001	-2.67480E-001	-2.27595E-001	4.92728E-007	-4.49639E-007	9.42367E-007	-2.53000E-001	3.73956E-004	6	..........a	-327.68
	62	0.84	-1.85742E-001	-2.65502E-001	-2.25622E-001	4.90558E-007	-4.47646E-007	9.38204E-007	-2.51000E-001	3.78956E-004	6	..........a	-327.68
	63	0.853333	-1.83700E-001	-2.63466E-001	-2.23583E-001	4.88273E-007	-4.45724E-007	9.33996E-007	-2.49000E-001	4.02706E-004	6	..........a	-327.68
	64	0.866667	-1.81695E-001	-2.61516E-001	-2.21605E-001	4.85342E-007	-4.42736E-007	9.28078E-007	-2.47000E-001	3.81456E-004	6	..........a	-327.68
	65	0.88	-1.79720E-001	-2.59453E-001	-2.19587E-001	4.81807E-007	-4.38813E-007	9.20620E-007	-2.45000E-001	3.76456E-004	6	..........a	-327.68
	66	0.893333	-1.77733E-001	-2.57468E-001	-2.17601E-001	4.77529E-007	-4.35647E-007	9.13176E-007	-2.43000E-001	3.82706E-004	6	..........a	-327.68
	67	0.906667	-1.75721E-001	-2.55481E-001	-2.15601E-001	4.75914E-007	-4.34075E-007	9.09988E-007	-2.41000E-001	3.87706E-004	6	..........a	-327.68
	68	0.92	-1.73748E-001	-2.53468E-001	-2.13608E-001	4.73818E-007	-4.31057E-007	9.04875E-007	-2.39000E-001	3.98956E-004	6	..........a	-327.68
	69	0.933333	-1.71743E-001	-2.51502E-001	-2.11623E-001	4.71253E-007	-4.28221E-007	8.99474E-007	-2.37000E-001	3.95206E-004	6	..........a	-327.68
	70	0.946667	-1.69742E-001	-2.49496E-001	-2.09619E-001	4.67898E-007	-4.25286E-007	8.93184E-007	-2.35000E-001	3.87706E-004	6	..........a	-327.68
	71	0.96	-1.67730E-001	-2.47476E-001	-2.07603E-001	4.64595E-007	-4.22196E-007	8.86790E-007	-2.33000E-001	3.60206E-004	6	..........a	-327.68
	72	0.97333	-1.65708E-001	-2.45481E-001	-2.05595E-001	4.62434E-007	-4.19835E-007	8.82270E-007	-2.31000E-001	3.58956E-004	6	..........a	-327.68
	73	0.98667	-1.63733E-001	-2.43480E-001	-2.03607E-001	4.59564E-007	-4.17783E-007	8.77347E-007	-2.29000E-001	4.23956E-004	6	..........a	-327.68
	74	1	-1.61717E-001	-2.41427E-001	-2.01572E-001	4.57316E-007	-4.14130E-007	8.71446E-007	-2.27000E-001	4.02706E-004	6	..........a	-327.68
	75	1.01333	-1.59741E-001	-2.39452E-001	-1.99597E-001	4.54241E-007	-4.10434E-007	8.64675E-007	-2.25000E-001	3.86456E-004	6	..........a	-327.68
	76	1.02667	-1.57738E-001	-2.37470E-001	-1.97604E-001	4.51073E-007	-4.08066E-007	8.59139E-007	-2.23000E-001	4.00206E-004	6	..........a	-327.68
	77	1.04	-1.55727E-001	-2.35452E-001	-1.95590E-001	4.50268E-007	-4.05383E-007	8.55651E-007	-2.21000E-001	3.78956E-004	6	..........a	-327.68
	78	1.05333	-1.53742E-001	-2.33450E-001	-1.93596E-001	4.48158E-007	-4.03823E-007	8.51981E-007	-2.19000E-001	3.75206E-004	6	..........a	-327.68
	79	1.06667	-1.51747E-001	-2.31463E-001	-1.91605E-001	4.45887E-007	-4.00988E-007	8.46875E-007	-2.17000E-001	3.58956E-004	6	..........a	-327.68
	80	1.08	-1.49746E-001	-2.29467E-001	-1.89607E-001	4.42604E-007	-3.97122E-007	8.39727E-007	-2.15000E-001	3.63956E-004	6	..........a	-327.68
	81	1.09333	-1.47791E-001	-2.27460E-001	-1.87625E-001	4.40029E-007	-3.94955E-007	8.34984E-007	-2.13000E-001	3.98956E-004	6	..........a	-327.68
	82	1.10667	-1.45780E-001	-2.25482E-001	-1.85631E-001	4.38966E-007	-3.93612E-007	8.32578E-007	-2.11000E-001	4.01456E-004	6	..........a	-327.68
	83	1.12	-1.43768E-001	-2.23492E-001	-1.83630E-001	4.38426E-007	-3.92162E-007	8.30588E-007	-2.09000E-001	3.93956E-004	6	..........a	-327.68
	84	1.13333	-1.41735E-001	-2.21477E-001	-1.81606E-001	4.37814E-007	-3.89714E-007	8.27528E-007	-2.07000E-001	3.76456E-004	6	..........a	-327.68
	85	1.14667	-1.39728E-001	-2.19433E-001	-1.79581E-001	4.35466E-007	-3.87066E-007	8.22532E-007	-2.05000E-001	3.76456E-004	6	..........a	-327.68
	86	1.16	-1.37728E-001	-2.17438E-001	-1.77583E-001	4.33676E-007	-3.85266E-007	8.18942E-007	-2.03000E-001	4.18956E-004	6	..........a	-327.68
	87	1.17333	-1.35743E-001	-2.15443E-001	-1.75593E-001	4.32071E-007	-3.83476E-007	8.15546E-007	-2.01000E-001	3.51456E-004	6	..........a	-327.68
	88	1.18667	-1.33798E-001	-2.13482E-001	-1.73640E-001	4.31700E-007	-3.82703E-007	8.14404E-007	-1.99000E-001	3.75206E-004	6	..........a	-327.68
	89	1.2	-1.31763E-001	-2.11462E-001	-1.71613E-001	4.31058E-007	-3.80640E-007	8.11698E-007	-1.97000E-001	3.88956E-004	6	..........a	-327.68
	90	1.21333	-1.29762E-001	-2.09487E-001	-1.69625E-001	4.30333E-007	-3.79753E-007	8.10086E-007	-1.95000E-001	3.65206E-004	6	..........a	-327.68
	91	1.22667	-1.27751E-001	-2.07473E-001	-1.67612E-001	4.29600E-007	-3.77357E-007	8.06958E-007	-1.93000E-001	3.95206E-004	6	..........a	-327.68
	92	1.24	-1.25781E-001	-2.05491E-001	-1.65636E-001	4.28108E-007	-3.77067E-007	8.05175E-007	-1.91000E-001	3.82706E-004	6	..........a	-327.68
	93	1.25333	-1.23790E-001	-2.03495E-001	-1.63642E-001	4.28803E-007	-3.76570E-007	8.05372E-007	-1.89000E-001	3.93956E-004	6	..........a	-327.68
	94	1.26667	-1.21793E-001	-2.01492E-001	-1.61643E-001	4.30328E-007	-3.75572E-007	8.05900E-007	-1.87000E-001	3.95206E-004	6	..........a	-327.68
	95	1.28	-1.19810E-001	-1.99495E-001	-1.59652E-001	4.28405E-007	-3.73732E-007	8.02137E-007	-1.85000E-001	3.88956E-004	6	..........a	-327.68
	96	1.29333	-1.17791E-001	-1.97521E-001	-1.57656E-001	4.27557E-007	-3.72287E-007	7.99844E-007	-1.83000E-001	3.52706E-004	6	..........a	-327.68
	97	1.30667	-1.15770E-001	-1.95543E-001	-1.55657E-001	4.28155E-007	-3.72137E-007	8.00292E-007	-1.81000E-001	3.61456E-004	6	..........a	-327.68
	98	1.32	-1.13761E-001	-1.93520E-001	-1.53640E-001	4.29315E-007	-3.73004E-007	8.02320E-007	-1.79000E-001	3.83956E-004	6	..........a	-327.68
	99	1.33333	-1.11712E-001	-1.91490E-001	-1.51601E-001	4.29998E-007	-3.71457E-007	8.01454E-007	-1.77000E-001	3.73956E-004	6	..........a	-327.68
	100	1.34667	-1.09797E-001	-1.89463E-001	-1.49630E-001	4.29198E-007	-3.71289E-007	8.00487E-007	-1.75000E-001	3.85206E-004	6	..........a	-327.68
