EXPLAIN
TAG	SQUARE_WAVE
TITLE	LABEL	Square Wave Voltammetry	Test Identifier
DATE	LABEL	8/10/2020	Date
TIME	LABEL	13:20:36	Time
NOTES	NOTES	1	Notes...
	
PSTAT	PSTAT	REF600-24079	Potentiostat
VINIT	QUANT	-3.50000E-001	Initial E (V)
VFINAL	QUANT	-1.50000E-001	Final E (V)
STEPSIZE	QUANT	2.00000E+000	Step Size (mV)
TIMERRES	QUANT	3.33340E-005	&Timer Resolution
FREQUENCY	QUANT	2.50000E+002	Frequency (Hz)
PULSESIZE	QUANT	2.50000E+001	Pulse Size E (mV)
PULSEON	QUANT	4.00000E-003	Pulse &Time (s)
NOISEREJECT	TOGGLE	F	Noise Rejection
AREA	QUANT	2.00000E-002	Sample Area (cm^2)
IMODE	SELECTOR	1	I/E Range Mode
IRANGE	QUANT	1.00000E-002	Max Current (mA)
EQDELAY	IQUANT	10	Equil. Time (s)
IRCOMP	SELECTOR	0	IRComp
PFCOR	QUANT	5.00000E+001	PF Corr. (ohm)
CYCLES	IQUANT	101	C&ycles (#)
ELECTRODETYPE	SELECTOR	0	Electrode Type
STRIPPING	TOGGLE	F	Used for Stripping
POLARITY	TOGGLE	F	Signal Polarity
LINEFREQ	IQUANT	60	Line Frequency (Hz)
INTPERIOD	QUANT	3.3334E-005	Integration Period (s)
SEQUENCER	TOGGLE	TRUE	Run as Sequence
PSTATMODEL	IQUANT	4	Pstat Model
PSTATSECTION	LABEL	REF600-24079	Pstat Section
PSTATSERIALNO	LABEL	24079	Pstat Serial Number
CTRLMODE	IQUANT	1	Control Mode
ELECTROMETER	IQUANT	0	RE=0 or CS=1
IESTAB	IQUANT	2	I/E Stability
CASPEED	IQUANT	6	Control Amp Speed
CONVENTION	IQUANT	1	Current Convention
ICHRANGE	IQUANT	2	Ich Range
ICHRANGEMODE	TOGGLE	F	Ich Auto Range
ICHOFFSETENABLE	TOGGLE	F	Ich Offset Enable
ICHOFFSET	QUANT	0	Ich Offset (V)
ICHFILTER	IQUANT	2	Ich Filter
VCHRANGE	IQUANT	2	Vch Range
VCHRANGEMODE	TOGGLE	F	Vch Auto Range
VCHOFFSETENABLE	TOGGLE	F	Vch Offset Enable
VCHOFFSET	QUANT	0	Vch Offset (V)
VCHFILTER	IQUANT	1	Vch Filter
ACHRANGE	IQUANT	2	Ach Range
ACHOFFSETENABLE	TOGGLE	F	Ach Offset Enable
ACHOFFSET	QUANT	0	Ach Offset (V)
ACHFILTER	IQUANT	1	Ach Filter
IERANGELOWERLIMIT	IQUANT	1	I/E Range Lower Limit
IERANGEMODE	TOGGLE	F	I/E AutoRange
IERANGE	IQUANT	7	I/E Range
POSFEEDENABLE	TOGGLE	F	Positive Feedback IR Comp
POSFEEDRESISTANCE	QUANT	0	Positive Feedback Resistance (ohm)
ACHSELECT	IQUANT	0	Ach Select
SENSECABLEID	IQUANT	13	Sense Cable ID
PWRCABLEID	IQUANT	13	Power Cable ID
DCCALDATE	LABEL	6/30/2020	DC Calibration Date
ACCALDATE	LABEL	6/30/2020	AC Calibration Date
THERMOSELECT	IQUANT	1	Thermo Select
FRAMEWORKVERSION	LABEL	7.8.2	Framework Version
INSTRUMENTVERSION	LABEL	4.40	Instrument Version
CURVE	TABLE	101
	Pt	T	Vfwd	Vrev	Vstep	Ifwd	Irev	Idif	Sig	Ach	IERange	Over	Temp
	#	s	V	V	V	A	A	A	V	V	#	bits	deg C
	0	0.004	-3.26558E-001	-3.81512E-001	-3.54035E-001	4.54016E-008	-6.39131E-006	6.43671E-006	-3.75000E-001	3.20206E-004	7	..........a	-327.68
	1	0.008	-3.19466E-001	-3.79391E-001	-3.49428E-001	7.27530E-006	-7.31577E-006	1.45911E-005	-3.73000E-001	3.03539E-004	7	..........a	-327.68
	2	0.012	-3.17607E-001	-3.77303E-001	-3.47455E-001	7.40790E-006	-7.28901E-006	1.46969E-005	-3.71000E-001	2.70206E-004	7	..........a	-327.68
	3	0.016	-3.15641E-001	-3.75291E-001	-3.45466E-001	7.41974E-006	-7.27435E-006	1.46941E-005	-3.69000E-001	3.82706E-004	7	..........a	-327.68
	4	0.02	-3.13666E-001	-3.73320E-001	-3.43493E-001	7.43099E-006	-7.26018E-006	1.46912E-005	-3.67000E-001	3.36873E-004	7	..........a	-327.68
	5	0.024	-3.11608E-001	-3.71316E-001	-3.41462E-001	7.42907E-006	-7.24934E-006	1.46784E-005	-3.65000E-001	3.32706E-004	7	..........a	-327.68
	6	0.028	-3.09641E-001	-3.69283E-001	-3.39462E-001	7.43307E-006	-7.24243E-006	1.46755E-005	-3.63000E-001	3.36873E-004	7	..........a	-327.68
	7	0.032	-3.07637E-001	-3.67312E-001	-3.37474E-001	7.43516E-006	-7.23776E-006	1.46729E-005	-3.61000E-001	3.45206E-004	7	..........a	-327.68
	8	0.036	-3.05612E-001	-3.65320E-001	-3.35466E-001	7.43824E-006	-7.22701E-006	1.46652E-005	-3.59000E-001	3.03539E-004	7	..........a	-327.68
	9	0.04	-3.03691E-001	-3.63299E-001	-3.33495E-001	7.43608E-006	-7.22709E-006	1.46632E-005	-3.57000E-001	3.03539E-004	7	..........a	-327.68
	10	0.044	-3.01674E-001	-3.61312E-001	-3.31493E-001	7.43474E-006	-7.22167E-006	1.46564E-005	-3.55000E-001	3.41039E-004	7	..........a	-327.68
	11	0.048	-2.99612E-001	-3.59312E-001	-3.29462E-001	7.43582E-006	-7.21784E-006	1.46537E-005	-3.53000E-001	3.32706E-004	7	..........a	-327.68
	12	0.052	-2.97624E-001	-3.57337E-001	-3.27480E-001	7.43341E-006	-7.21225E-006	1.46457E-005	-3.51000E-001	2.91039E-004	7	..........a	-327.68
	13	0.056	-2.95599E-001	-3.55332E-001	-3.25466E-001	7.43699E-006	-7.20725E-006	1.46442E-005	-3.49000E-001	3.24373E-004	7	..........a	-327.68
	14	0.06	-2.93620E-001	-3.53324E-001	-3.23472E-001	7.42991E-006	-7.20150E-006	1.46314E-005	-3.47000E-001	3.45206E-004	7	..........a	-327.68
	15	0.064	-2.91612E-001	-3.51312E-001	-3.21462E-001	7.43307E-006	-7.20159E-006	1.46347E-005	-3.45000E-001	3.11873E-004	7	..........a	-327.68
	16	0.068	-2.89649E-001	-3.49291E-001	-3.19470E-001	7.43508E-006	-7.20150E-006	1.46366E-005	-3.43000E-001	3.28539E-004	7	..........a	-327.68
	17	0.072	-2.87607E-001	-3.47320E-001	-3.17464E-001	7.43349E-006	-7.19542E-006	1.46289E-005	-3.41000E-001	3.20206E-004	7	..........a	-327.68
	18	0.076	-2.85578E-001	-3.45287E-001	-3.15433E-001	7.43416E-006	-7.19417E-006	1.46283E-005	-3.39000E-001	3.45206E-004	7	..........a	-327.68
	19	0.08	-2.83628E-001	-3.43258E-001	-3.13443E-001	7.43024E-006	-7.19709E-006	1.46273E-005	-3.37000E-001	3.11873E-004	7	..........a	-327.68
	20	0.084	-2.81633E-001	-3.41307E-001	-3.11470E-001	7.43616E-006	-7.19175E-006	1.46279E-005	-3.35000E-001	3.28539E-004	7	..........a	-327.68
	21	0.088	-2.79687E-001	-3.39266E-001	-3.09476E-001	7.43149E-006	-7.18883E-006	1.46203E-005	-3.33000E-001	3.24373E-004	7	..........a	-327.68
	22	0.092	-2.77612E-001	-3.37316E-001	-3.07464E-001	7.43633E-006	-7.18675E-006	1.46231E-005	-3.31000E-001	3.20206E-004	7	..........a	-327.68
	23	0.096	-2.75616E-001	-3.35245E-001	-3.05430E-001	7.43041E-006	-7.18692E-006	1.46173E-005	-3.29000E-001	2.99373E-004	7	..........a	-327.68
	24	0.1	-2.73637E-001	-3.33278E-001	-3.03458E-001	7.43733E-006	-7.18633E-006	1.46237E-005	-3.27000E-001	3.07706E-004	7	..........a	-327.68
	25	0.104	-2.71624E-001	-3.31308E-001	-3.01466E-001	7.43833E-006	-7.18258E-006	1.46209E-005	-3.25000E-001	3.28539E-004	7	..........a	-327.68
	26	0.108	-2.69633E-001	-3.29291E-001	-2.99462E-001	7.43724E-006	-7.18492E-006	1.46222E-005	-3.23000E-001	3.57706E-004	7	..........a	-327.68
	27	0.112	-2.67591E-001	-3.27316E-001	-2.97453E-001	7.44099E-006	-7.18408E-006	1.46251E-005	-3.21000E-001	3.41039E-004	7	..........a	-327.68
	28	0.116	-2.65624E-001	-3.25249E-001	-2.95437E-001	7.43716E-006	-7.18550E-006	1.46227E-005	-3.19000E-001	3.41039E-004	7	..........a	-327.68
	29	0.12	-2.63712E-001	-3.23337E-001	-2.93524E-001	7.44541E-006	-7.18700E-006	1.46324E-005	-3.17000E-001	3.78539E-004	7	..........a	-327.68
	30	0.124	-2.61653E-001	-3.21308E-001	-2.91480E-001	7.44016E-006	-7.18250E-006	1.46227E-005	-3.15000E-001	3.86873E-004	7	..........a	-327.68
	31	0.128	-2.59637E-001	-3.19303E-001	-2.89470E-001	7.44591E-006	-7.18092E-006	1.46268E-005	-3.13000E-001	2.74373E-004	7	..........a	-327.68
	32	0.132	-2.57666E-001	-3.17249E-001	-2.87458E-001	7.44516E-006	-7.18492E-006	1.46301E-005	-3.11000E-001	3.32706E-004	7	..........a	-327.68
	33	0.136	-2.55716E-001	-3.15316E-001	-2.85516E-001	7.44958E-006	-7.18483E-006	1.46344E-005	-3.09000E-001	3.03539E-004	7	..........a	-327.68
	34	0.14	-2.53641E-001	-3.13274E-001	-2.83458E-001	7.45208E-006	-7.18325E-006	1.46353E-005	-3.07000E-001	3.07706E-004	7	..........a	-327.68
	35	0.144	-2.51641E-001	-3.11274E-001	-2.81458E-001	7.45091E-006	-7.18217E-006	1.46331E-005	-3.05000E-001	3.07706E-004	7	..........a	-327.68
	36	0.148	-2.49658E-001	-3.09291E-001	-2.79474E-001	7.45099E-006	-7.18267E-006	1.46337E-005	-3.03000E-001	3.11873E-004	7	..........a	-327.68
	37	0.152	-2.47683E-001	-3.07303E-001	-2.77493E-001	7.45149E-006	-7.18642E-006	1.46379E-005	-3.01000E-001	3.16039E-004	7	..........a	-327.68
	38	0.156	-2.45687E-001	-3.05237E-001	-2.75462E-001	7.46150E-006	-7.18283E-006	1.46443E-005	-2.99000E-001	3.28539E-004	7	..........a	-327.68
	39	0.16	-2.43687E-001	-3.03278E-001	-2.73483E-001	7.45524E-006	-7.18217E-006	1.46374E-005	-2.97000E-001	3.66039E-004	7	..........a	-327.68
	40	0.164	-2.41653E-001	-3.01316E-001	-2.71485E-001	7.45933E-006	-7.18000E-006	1.46393E-005	-2.95000E-001	3.03539E-004	7	..........a	-327.68
	41	0.168	-2.39708E-001	-2.99274E-001	-2.69491E-001	7.46275E-006	-7.18058E-006	1.46433E-005	-2.93000E-001	3.53539E-004	7	..........a	-327.68
	42	0.172	-2.37662E-001	-2.97266E-001	-2.67464E-001	7.46208E-006	-7.18133E-006	1.46434E-005	-2.91000E-001	3.45206E-004	7	..........a	-327.68
	43	0.176	-2.35733E-001	-2.95262E-001	-2.65497E-001	7.46325E-006	-7.18250E-006	1.46457E-005	-2.89000E-001	2.86873E-004	7	..........a	-327.68
	44	0.18	-2.33687E-001	-2.93262E-001	-2.63474E-001	7.46358E-006	-7.17567E-006	1.46392E-005	-2.87000E-001	3.32706E-004	7	..........a	-327.68
	45	0.184	-2.31708E-001	-2.91283E-001	-2.61495E-001	7.46041E-006	-7.17458E-006	1.46350E-005	-2.85000E-001	3.28539E-004	7	..........a	-327.68
	46	0.188	-2.29737E-001	-2.89245E-001	-2.59491E-001	7.46225E-006	-7.17567E-006	1.46379E-005	-2.83000E-001	2.99373E-004	7	..........a	-327.68
	47	0.192	-2.27716E-001	-2.87257E-001	-2.57487E-001	7.46883E-006	-7.17383E-006	1.46427E-005	-2.81000E-001	3.36873E-004	7	..........a	-327.68
	48	0.196	-2.25708E-001	-2.85241E-001	-2.55474E-001	7.46291E-006	-7.17342E-006	1.46363E-005	-2.79000E-001	3.20206E-004	7	..........a	-327.68
	49	0.2	-2.23658E-001	-2.83212E-001	-2.53435E-001	7.46066E-006	-7.16667E-006	1.46273E-005	-2.77000E-001	3.07706E-004	7	..........a	-327.68
	50	0.204	-2.21703E-001	-2.81266E-001	-2.51485E-001	7.46458E-006	-7.16725E-006	1.46318E-005	-2.75000E-001	3.41039E-004	7	..........a	-327.68
	51	0.208	-2.19699E-001	-2.79249E-001	-2.49474E-001	7.46716E-006	-7.16350E-006	1.46307E-005	-2.73000E-001	3.24373E-004	7	..........a	-327.68
	52	0.212	-2.17716E-001	-2.77216E-001	-2.47466E-001	7.46225E-006	-7.16275E-006	1.46250E-005	-2.71000E-001	3.03539E-004	7	..........a	-327.68
	53	0.216	-2.15695E-001	-2.75262E-001	-2.45478E-001	7.45624E-006	-7.16016E-006	1.46164E-005	-2.69000E-001	3.28539E-004	7	..........a	-327.68
	54	0.22	-2.13712E-001	-2.73257E-001	-2.43485E-001	7.45800E-006	-7.15600E-006	1.46140E-005	-2.67000E-001	3.57706E-004	7	..........a	-327.68
	55	0.224	-2.11683E-001	-2.71299E-001	-2.41491E-001	7.45283E-006	-7.15508E-006	1.46079E-005	-2.65000E-001	2.95206E-004	7	..........a	-327.68
	56	0.228	-2.09674E-001	-2.69278E-001	-2.39476E-001	7.45666E-006	-7.15066E-006	1.46073E-005	-2.63000E-001	3.20206E-004	7	..........a	-327.68
	57	0.232	-2.07724E-001	-2.67249E-001	-2.37487E-001	7.44783E-006	-7.14508E-006	1.45929E-005	-2.61000E-001	2.78539E-004	7	..........a	-327.68
	58	0.236	-2.05666E-001	-2.65220E-001	-2.35443E-001	7.44641E-006	-7.13774E-006	1.45842E-005	-2.59000E-001	3.53539E-004	7	..........a	-327.68
	59	0.24	-2.03662E-001	-2.63266E-001	-2.33464E-001	7.44541E-006	-7.13799E-006	1.45834E-005	-2.57000E-001	3.28539E-004	7	..........a	-327.68
	60	0.244	-2.01703E-001	-2.61249E-001	-2.31476E-001	7.44283E-006	-7.13566E-006	1.45785E-005	-2.55000E-001	3.49373E-004	7	..........a	-327.68
	61	0.248	-1.99749E-001	-2.59249E-001	-2.29499E-001	7.44016E-006	-7.13374E-006	1.45739E-005	-2.53000E-001	3.49373E-004	7	..........a	-327.68
	62	0.252	-1.97716E-001	-2.57257E-001	-2.27487E-001	7.43207E-006	-7.12583E-006	1.45579E-005	-2.51000E-001	2.95206E-004	7	..........a	-327.68
	63	0.256	-1.95699E-001	-2.55282E-001	-2.25491E-001	7.43533E-006	-7.12883E-006	1.45642E-005	-2.49000E-001	3.49373E-004	7	..........a	-327.68
	64	0.26	-1.93720E-001	-2.53274E-001	-2.23497E-001	7.42916E-006	-7.12108E-006	1.45502E-005	-2.47000E-001	3.45206E-004	7	..........a	-327.68
	65	0.264	-1.91666E-001	-2.51278E-001	-2.21472E-001	7.43066E-006	-7.11516E-006	1.45458E-005	-2.45000E-001	3.66039E-004	7	..........a	-327.68
	66	0.268	-1.89670E-001	-2.49316E-001	-2.19493E-001	7.42249E-006	-7.10757E-006	1.45301E-005	-2.43000E-001	2.99373E-004	7	..........a	-327.68
	67	0.272	-1.87695E-001	-2.47237E-001	-2.17466E-001	7.42041E-006	-7.10507E-006	1.45255E-005	-2.41000E-001	3.36873E-004	7	..........a	-327.68
	68	0.276	-1.85658E-001	-2.45270E-001	-2.15464E-001	7.42016E-006	-7.10799E-006	1.45281E-005	-2.39000E-001	3.24373E-004	7	..........a	-327.68
	69	0.28	-1.83641E-001	-2.43278E-001	-2.13460E-001	7.41824E-006	-7.10049E-006	1.45187E-005	-2.37000E-001	2.95206E-004	7	..........a	-327.68
	70	0.284	-1.81578E-001	-2.41278E-001	-2.11428E-001	7.41257E-006	-7.09924E-006	1.45118E-005	-2.35000E-001	3.07706E-004	7	..........a	-327.68
	71	0.288	-1.79612E-001	-2.39274E-001	-2.09443E-001	7.41074E-006	-7.09807E-006	1.45088E-005	-2.33000E-001	3.53539E-004	7	..........a	-327.68
	72	0.292	-1.77674E-001	-2.37283E-001	-2.07478E-001	7.41432E-006	-7.09532E-006	1.45096E-005	-2.31000E-001	3.36873E-004	7	..........a	-327.68
	73	0.296	-1.75695E-001	-2.35358E-001	-2.05526E-001	7.40532E-006	-7.09390E-006	1.44992E-005	-2.29000E-001	3.45206E-004	7	..........a	-327.68
	74	0.3	-1.73612E-001	-2.33333E-001	-2.03472E-001	7.40540E-006	-7.08857E-006	1.44940E-005	-2.27000E-001	3.03539E-004	7	..........a	-327.68
	75	0.304	-1.71587E-001	-2.31233E-001	-2.01410E-001	7.40324E-006	-7.08707E-006	1.44903E-005	-2.25000E-001	3.45206E-004	7	..........a	-327.68
	76	0.308	-1.69612E-001	-2.29295E-001	-1.99453E-001	7.40482E-006	-7.08682E-006	1.44916E-005	-2.23000E-001	3.66039E-004	7	..........a	-327.68
	77	0.312	-1.67649E-001	-2.27333E-001	-1.97491E-001	7.39965E-006	-7.08524E-006	1.44849E-005	-2.21000E-001	3.20206E-004	7	..........a	-327.68
	78	0.316	-1.65583E-001	-2.25303E-001	-1.95443E-001	7.39682E-006	-7.08099E-006	1.44778E-005	-2.19000E-001	3.53539E-004	7	..........a	-327.68
	79	0.32	-1.63574E-001	-2.23287E-001	-1.93430E-001	7.39682E-006	-7.07840E-006	1.44752E-005	-2.17000E-001	3.03539E-004	7	..........a	-327.68
	80	0.324	-1.61649E-001	-2.21283E-001	-1.91466E-001	7.39199E-006	-7.08090E-006	1.44729E-005	-2.15000E-001	3.07706E-004	7	..........a	-327.68
	81	0.328	-1.59649E-001	-2.19291E-001	-1.89470E-001	7.39774E-006	-7.07982E-006	1.44776E-005	-2.13000E-001	3.36873E-004	7	..........a	-327.68
	82	0.332	-1.57566E-001	-2.17316E-001	-1.87441E-001	7.38932E-006	-7.07665E-006	1.44660E-005	-2.11000E-001	2.99373E-004	7	..........a	-327.68
	83	0.336	-1.55641E-001	-2.15324E-001	-1.85483E-001	7.39432E-006	-7.07007E-006	1.44644E-005	-2.09000E-001	3.24373E-004	7	..........a	-327.68
	84	0.34	-1.53624E-001	-2.13333E-001	-1.83478E-001	7.38957E-006	-7.07365E-006	1.44632E-005	-2.07000E-001	3.28539E-004	7	..........a	-327.68
	85	0.344	-1.51628E-001	-2.11308E-001	-1.81468E-001	7.39199E-006	-7.07465E-006	1.44666E-005	-2.05000E-001	3.57706E-004	7	..........a	-327.68
	86	0.348	-1.49591E-001	-2.09333E-001	-1.79462E-001	7.39032E-006	-7.07182E-006	1.44621E-005	-2.03000E-001	2.86873E-004	7	..........a	-327.68
	87	0.352	-1.47666E-001	-2.07341E-001	-1.77503E-001	7.38874E-006	-7.07098E-006	1.44597E-005	-2.01000E-001	3.16039E-004	7	..........a	-327.68
	88	0.356	-1.45616E-001	-2.05316E-001	-1.75466E-001	7.38749E-006	-7.06982E-006	1.44573E-005	-1.99000E-001	3.11873E-004	7	..........a	-327.68
	89	0.36	-1.43591E-001	-2.03333E-001	-1.73462E-001	7.38732E-006	-7.07223E-006	1.44596E-005	-1.97000E-001	3.11873E-004	7	..........a	-327.68
	90	0.364	-1.41599E-001	-2.01353E-001	-1.71476E-001	7.39149E-006	-7.07323E-006	1.44647E-005	-1.95000E-001	3.11873E-004	7	..........a	-327.68
	91	0.368	-1.39583E-001	-1.99308E-001	-1.69445E-001	7.38599E-006	-7.07090E-006	1.44569E-005	-1.93000E-001	3.20206E-004	7	..........a	-327.68
	92	0.372	-1.37587E-001	-1.97291E-001	-1.67439E-001	7.39115E-006	-7.06973E-006	1.44609E-005	-1.91000E-001	3.11873E-004	7	..........a	-327.68
	93	0.376	-1.35599E-001	-1.95337E-001	-1.65468E-001	7.39132E-006	-7.07223E-006	1.44636E-005	-1.89000E-001	3.53539E-004	7	..........a	-327.68
	94	0.38	-1.33645E-001	-1.93337E-001	-1.63491E-001	7.39132E-006	-7.06840E-006	1.44597E-005	-1.87000E-001	2.86873E-004	7	..........a	-327.68
	95	0.384	-1.31612E-001	-1.91374E-001	-1.61493E-001	7.39115E-006	-7.07182E-006	1.44630E-005	-1.85000E-001	3.32706E-004	7	..........a	-327.68
	96	0.388	-1.29591E-001	-1.89337E-001	-1.59464E-001	7.39099E-006	-7.07240E-006	1.44634E-005	-1.83000E-001	3.70206E-004	7	..........a	-327.68
	97	0.392	-1.27578E-001	-1.87387E-001	-1.57483E-001	7.39490E-006	-7.07740E-006	1.44723E-005	-1.81000E-001	3.45206E-004	7	..........a	-327.68
	98	0.396	-1.25620E-001	-1.85308E-001	-1.55464E-001	7.39090E-006	-7.07357E-006	1.44645E-005	-1.79000E-001	3.32706E-004	7	..........a	-327.68
	99	0.4	-1.23574E-001	-1.83291E-001	-1.53433E-001	7.39757E-006	-7.07249E-006	1.44701E-005	-1.77000E-001	3.07706E-004	7	..........a	-327.68
	100	0.404	-1.21637E-001	-1.81337E-001	-1.51487E-001	7.39357E-006	-7.07207E-006	1.44656E-005	-1.75000E-001	3.16039E-004	7	..........a	-327.68
