EXPLAIN
TAG	SQUARE_WAVE
TITLE	LABEL	Square Wave Voltammetry	Test Identifier
DATE	LABEL	8/10/2020	Date
TIME	LABEL	13:20:47	Time
NOTES	NOTES	1	Notes...
	
PSTAT	PSTAT	REF600-24079	Potentiostat
VINIT	QUANT	-3.50000E-001	Initial E (V)
VFINAL	QUANT	-1.50000E-001	Final E (V)
STEPSIZE	QUANT	2.00000E+000	Step Size (mV)
TIMERRES	QUANT	3.33340E-005	&Timer Resolution
FREQUENCY	QUANT	3.00000E+002	Frequency (Hz)
PULSESIZE	QUANT	2.50000E+001	Pulse Size E (mV)
PULSEON	QUANT	3.33333E-003	Pulse &Time (s)
NOISEREJECT	TOGGLE	F	Noise Rejection
AREA	QUANT	2.00000E-002	Sample Area (cm^2)
IMODE	SELECTOR	1	I/E Range Mode
IRANGE	QUANT	1.00000E-002	Max Current (mA)
EQDELAY	IQUANT	10	Equil. Time (s)
IRCOMP	SELECTOR	0	IRComp
PFCOR	QUANT	5.00000E+001	PF Corr. (ohm)
CYCLES	IQUANT	101	C&ycles (#)
ELECTRODETYPE	SELECTOR	0	Electrode Type
STRIPPING	TOGGLE	F	Used for Stripping
POLARITY	TOGGLE	F	Signal Polarity
LINEFREQ	IQUANT	60	Line Frequency (Hz)
INTPERIOD	QUANT	3.3334E-005	Integration Period (s)
SEQUENCER	TOGGLE	TRUE	Run as Sequence
PSTATMODEL	IQUANT	4	Pstat Model
PSTATSECTION	LABEL	REF600-24079	Pstat Section
PSTATSERIALNO	LABEL	24079	Pstat Serial Number
CTRLMODE	IQUANT	1	Control Mode
ELECTROMETER	IQUANT	0	RE=0 or CS=1
IESTAB	IQUANT	2	I/E Stability
CASPEED	IQUANT	6	Control Amp Speed
CONVENTION	IQUANT	1	Current Convention
ICHRANGE	IQUANT	2	Ich Range
ICHRANGEMODE	TOGGLE	F	Ich Auto Range
ICHOFFSETENABLE	TOGGLE	F	Ich Offset Enable
ICHOFFSET	QUANT	0	Ich Offset (V)
ICHFILTER	IQUANT	1	Ich Filter
VCHRANGE	IQUANT	2	Vch Range
VCHRANGEMODE	TOGGLE	F	Vch Auto Range
VCHOFFSETENABLE	TOGGLE	F	Vch Offset Enable
VCHOFFSET	QUANT	0	Vch Offset (V)
VCHFILTER	IQUANT	1	Vch Filter
ACHRANGE	IQUANT	2	Ach Range
ACHOFFSETENABLE	TOGGLE	F	Ach Offset Enable
ACHOFFSET	QUANT	0	Ach Offset (V)
ACHFILTER	IQUANT	1	Ach Filter
IERANGELOWERLIMIT	IQUANT	1	I/E Range Lower Limit
IERANGEMODE	TOGGLE	F	I/E AutoRange
IERANGE	IQUANT	7	I/E Range
POSFEEDENABLE	TOGGLE	F	Positive Feedback IR Comp
POSFEEDRESISTANCE	QUANT	0	Positive Feedback Resistance (ohm)
ACHSELECT	IQUANT	0	Ach Select
SENSECABLEID	IQUANT	13	Sense Cable ID
PWRCABLEID	IQUANT	13	Power Cable ID
DCCALDATE	LABEL	6/30/2020	DC Calibration Date
ACCALDATE	LABEL	6/30/2020	AC Calibration Date
THERMOSELECT	IQUANT	1	Thermo Select
FRAMEWORKVERSION	LABEL	7.8.2	Framework Version
INSTRUMENTVERSION	LABEL	4.40	Instrument Version
CURVE	TABLE	101
	Pt	T	Vfwd	Vrev	Vstep	Ifwd	Irev	Idif	Sig	Ach	IERange	Over	Temp
	#	s	V	V	V	A	A	A	V	V	#	bits	deg C
	0	0.003333	-3.23884E-001	-3.76269E-001	-3.50077E-001	5.41607E-008	-7.08301E-006	7.13717E-006	-3.75000E-001	3.92706E-004	7	..........a	-327.68
	1	0.006667	-3.21084E-001	-3.71954E-001	-3.46519E-001	8.07745E-006	-7.94883E-006	1.60263E-005	-3.73000E-001	3.52706E-004	7	..........a	-327.68
	2	0.01	-3.19619E-001	-3.69919E-001	-3.44769E-001	8.00084E-006	-7.85412E-006	1.58550E-005	-3.71000E-001	3.32706E-004	7	..........a	-327.68
	3	0.013333	-3.17639E-001	-3.67904E-001	-3.42772E-001	8.01445E-006	-7.83651E-006	1.58510E-005	-3.69000E-001	4.02706E-004	7	..........a	-327.68
	4	0.016667	-3.15524E-001	-3.65904E-001	-3.40714E-001	8.01865E-006	-7.82571E-006	1.58444E-005	-3.67000E-001	3.57706E-004	7	..........a	-327.68
	5	0.02	-3.13699E-001	-3.63934E-001	-3.38817E-001	8.02635E-006	-7.81671E-006	1.58431E-005	-3.65000E-001	3.12706E-004	7	..........a	-327.68
	6	0.023333	-3.11524E-001	-3.61879E-001	-3.36702E-001	8.02745E-006	-7.80851E-006	1.58360E-005	-3.63000E-001	3.77706E-004	7	..........a	-327.68
	7	0.026667	-3.09519E-001	-3.59899E-001	-3.34709E-001	8.03385E-006	-7.79831E-006	1.58322E-005	-3.61000E-001	3.42706E-004	7	..........a	-327.68
	8	0.03	-3.07534E-001	-3.57904E-001	-3.32719E-001	8.03095E-006	-7.79191E-006	1.58229E-005	-3.59000E-001	3.02706E-004	7	..........a	-327.68
	9	0.033333	-3.05564E-001	-3.55934E-001	-3.30749E-001	8.03465E-006	-7.79021E-006	1.58249E-005	-3.57000E-001	3.57706E-004	7	..........a	-327.68
	10	0.036667	-3.03544E-001	-3.53964E-001	-3.28754E-001	8.03435E-006	-7.77961E-006	1.58140E-005	-3.55000E-001	3.62706E-004	7	..........a	-327.68
	11	0.04	-3.01564E-001	-3.51939E-001	-3.26752E-001	8.03575E-006	-7.77951E-006	1.58153E-005	-3.53000E-001	3.52706E-004	7	..........a	-327.68
	12	0.043333	-2.99584E-001	-3.49954E-001	-3.24769E-001	8.03755E-006	-7.77191E-006	1.58095E-005	-3.51000E-001	3.87706E-004	7	..........a	-327.68
	13	0.046667	-2.97509E-001	-3.47894E-001	-3.22702E-001	8.03815E-006	-7.77001E-006	1.58082E-005	-3.49000E-001	3.27706E-004	7	..........a	-327.68
	14	0.05	-2.95619E-001	-3.45834E-001	-3.20727E-001	8.03285E-006	-7.76490E-006	1.57978E-005	-3.47000E-001	3.32706E-004	7	..........a	-327.68
	15	0.053333	-2.93614E-001	-3.43914E-001	-3.18764E-001	8.03215E-006	-7.76270E-006	1.57949E-005	-3.45000E-001	3.22706E-004	7	..........a	-327.68
	16	0.056667	-2.91589E-001	-3.41939E-001	-3.16764E-001	8.03585E-006	-7.75900E-006	1.57949E-005	-3.43000E-001	3.07706E-004	7	..........a	-327.68
	17	0.06	-2.89524E-001	-3.39994E-001	-3.14759E-001	8.03445E-006	-7.75900E-006	1.57935E-005	-3.41000E-001	3.52706E-004	7	..........a	-327.68
	18	0.063333	-2.87544E-001	-3.37924E-001	-3.12734E-001	8.03955E-006	-7.75840E-006	1.57980E-005	-3.39000E-001	3.52706E-004	7	..........a	-327.68
	19	0.066667	-2.85494E-001	-3.35954E-001	-3.10724E-001	8.03525E-006	-7.75840E-006	1.57937E-005	-3.37000E-001	3.32706E-004	7	..........a	-327.68
	20	0.07	-2.83669E-001	-3.33889E-001	-3.08779E-001	8.03895E-006	-7.75050E-006	1.57895E-005	-3.35000E-001	2.72706E-004	7	..........a	-327.68
	21	0.073333	-2.81539E-001	-3.31959E-001	-3.06749E-001	8.03535E-006	-7.74720E-006	1.57826E-005	-3.33000E-001	3.52706E-004	7	..........a	-327.68
	22	0.076667	-2.79534E-001	-3.30029E-001	-3.04782E-001	8.04025E-006	-7.75120E-006	1.57915E-005	-3.31000E-001	3.72706E-004	7	..........a	-327.68
	23	0.08	-2.77604E-001	-3.27939E-001	-3.02772E-001	8.04125E-006	-7.74750E-006	1.57888E-005	-3.29000E-001	3.32706E-004	7	..........a	-327.68
	24	0.083333	-2.75534E-001	-3.25959E-001	-3.00747E-001	8.03885E-006	-7.74650E-006	1.57854E-005	-3.27000E-001	3.52706E-004	7	..........a	-327.68
	25	0.086667	-2.73644E-001	-3.23904E-001	-2.98774E-001	8.04335E-006	-7.74430E-006	1.57877E-005	-3.25000E-001	3.37706E-004	7	..........a	-327.68
	26	0.09	-2.71549E-001	-3.21899E-001	-2.96724E-001	8.04405E-006	-7.74320E-006	1.57873E-005	-3.23000E-001	3.27706E-004	7	..........a	-327.68
	27	0.093333	-2.69614E-001	-3.20064E-001	-2.94839E-001	8.04405E-006	-7.74190E-006	1.57860E-005	-3.21000E-001	3.72706E-004	7	..........a	-327.68
	28	0.096667	-2.67539E-001	-3.17934E-001	-2.92737E-001	8.04605E-006	-7.74080E-006	1.57869E-005	-3.19000E-001	3.62706E-004	7	..........a	-327.68
	29	0.1	-2.65544E-001	-3.15939E-001	-2.90742E-001	8.04905E-006	-7.74140E-006	1.57905E-005	-3.17000E-001	3.07706E-004	7	..........a	-327.68
	30	0.103333	-2.63619E-001	-3.13964E-001	-2.88792E-001	8.04425E-006	-7.74180E-006	1.57861E-005	-3.15000E-001	3.37706E-004	7	..........a	-327.68
	31	0.106667	-2.61524E-001	-3.11854E-001	-2.86689E-001	8.05055E-006	-7.73880E-006	1.57894E-005	-3.13000E-001	3.67706E-004	7	..........a	-327.68
	32	0.11	-2.59564E-001	-3.10034E-001	-2.84799E-001	8.04615E-006	-7.73900E-006	1.57852E-005	-3.11000E-001	3.37706E-004	7	..........a	-327.68
	33	0.113333	-2.57534E-001	-3.07924E-001	-2.82729E-001	8.05195E-006	-7.73880E-006	1.57908E-005	-3.09000E-001	3.72706E-004	7	..........a	-327.68
	34	0.116667	-2.55524E-001	-3.05894E-001	-2.80709E-001	8.05205E-006	-7.73860E-006	1.57907E-005	-3.07000E-001	3.87706E-004	7	..........a	-327.68
	35	0.12	-2.53649E-001	-3.03959E-001	-2.78804E-001	8.05115E-006	-7.73400E-006	1.57852E-005	-3.05000E-001	3.47706E-004	7	..........a	-327.68
	36	0.123333	-2.51589E-001	-3.01894E-001	-2.76742E-001	8.05195E-006	-7.73240E-006	1.57843E-005	-3.03000E-001	3.27706E-004	7	..........a	-327.68
	37	0.126667	-2.49629E-001	-2.99979E-001	-2.74804E-001	8.05485E-006	-7.73590E-006	1.57908E-005	-3.01000E-001	3.62706E-004	7	..........a	-327.68
	38	0.13	-2.47579E-001	-2.97914E-001	-2.72747E-001	8.05705E-006	-7.73090E-006	1.57880E-005	-2.99000E-001	3.32706E-004	7	..........a	-327.68
	39	0.133333	-2.45494E-001	-2.95914E-001	-2.70704E-001	8.05505E-006	-7.73390E-006	1.57890E-005	-2.97000E-001	2.67706E-004	7	..........a	-327.68
	40	0.136667	-2.43584E-001	-2.93839E-001	-2.68712E-001	8.05765E-006	-7.72990E-006	1.57876E-005	-2.95000E-001	3.57706E-004	7	..........a	-327.68
	41	0.14	-2.41544E-001	-2.91899E-001	-2.66722E-001	8.05945E-006	-7.72780E-006	1.57873E-005	-2.93000E-001	3.47706E-004	7	..........a	-327.68
	42	0.143333	-2.39599E-001	-2.89989E-001	-2.64794E-001	8.05995E-006	-7.73120E-006	1.57912E-005	-2.91000E-001	3.87706E-004	7	..........a	-327.68
	43	0.146667	-2.37604E-001	-2.87884E-001	-2.62744E-001	8.06035E-006	-7.72920E-006	1.57896E-005	-2.89000E-001	3.42706E-004	7	..........a	-327.68
	44	0.15	-2.35619E-001	-2.85844E-001	-2.60732E-001	8.06465E-006	-7.72720E-006	1.57919E-005	-2.87000E-001	3.32706E-004	7	..........a	-327.68
	45	0.153333	-2.33609E-001	-2.83874E-001	-2.58742E-001	8.06145E-006	-7.73030E-006	1.57918E-005	-2.85000E-001	3.07706E-004	7	..........a	-327.68
	46	0.156667	-2.31534E-001	-2.81819E-001	-2.56677E-001	8.06785E-006	-7.72670E-006	1.57946E-005	-2.83000E-001	3.32706E-004	7	..........a	-327.68
	47	0.16	-2.29544E-001	-2.80019E-001	-2.54782E-001	8.06165E-006	-7.72580E-006	1.57875E-005	-2.81000E-001	3.92706E-004	7	..........a	-327.68
	48	0.163333	-2.27574E-001	-2.77899E-001	-2.52737E-001	8.06315E-006	-7.72190E-006	1.57851E-005	-2.79000E-001	3.27706E-004	7	..........a	-327.68
	49	0.166667	-2.25574E-001	-2.75844E-001	-2.50709E-001	8.05985E-006	-7.71920E-006	1.57790E-005	-2.77000E-001	3.72706E-004	7	..........a	-327.68
	50	0.17	-2.23614E-001	-2.73874E-001	-2.48744E-001	8.05765E-006	-7.71760E-006	1.57752E-005	-2.75000E-001	3.32706E-004	7	..........a	-327.68
	51	0.173333	-2.21604E-001	-2.71894E-001	-2.46749E-001	8.05815E-006	-7.71110E-006	1.57692E-005	-2.73000E-001	3.47706E-004	7	..........a	-327.68
	52	0.176667	-2.19554E-001	-2.69954E-001	-2.44754E-001	8.06305E-006	-7.71290E-006	1.57759E-005	-2.71000E-001	3.57706E-004	7	..........a	-327.68
	53	0.18	-2.17544E-001	-2.67914E-001	-2.42729E-001	8.05965E-006	-7.70720E-006	1.57668E-005	-2.69000E-001	3.47706E-004	7	..........a	-327.68
	54	0.183333	-2.15519E-001	-2.65894E-001	-2.40707E-001	8.05735E-006	-7.70690E-006	1.57642E-005	-2.67000E-001	3.07706E-004	7	..........a	-327.68
	55	0.186667	-2.13669E-001	-2.63919E-001	-2.38794E-001	8.05725E-006	-7.70120E-006	1.57584E-005	-2.65000E-001	3.47706E-004	7	..........a	-327.68
	56	0.19	-2.11574E-001	-2.61894E-001	-2.36734E-001	8.05555E-006	-7.69770E-006	1.57532E-005	-2.63000E-001	3.72706E-004	7	..........a	-327.68
	57	0.193333	-2.09544E-001	-2.59969E-001	-2.34757E-001	8.05345E-006	-7.69510E-006	1.57485E-005	-2.61000E-001	3.02706E-004	7	..........a	-327.68
	58	0.196667	-2.07539E-001	-2.57869E-001	-2.32704E-001	8.05365E-006	-7.69570E-006	1.57493E-005	-2.59000E-001	2.92706E-004	7	..........a	-327.68
	59	0.2	-2.05604E-001	-2.55879E-001	-2.30742E-001	8.05035E-006	-7.69280E-006	1.57431E-005	-2.57000E-001	3.07706E-004	7	..........a	-327.68
	60	0.203333	-2.03599E-001	-2.53989E-001	-2.28794E-001	8.04065E-006	-7.69050E-006	1.57311E-005	-2.55000E-001	3.82706E-004	7	..........a	-327.68
	61	0.206667	-2.01559E-001	-2.51919E-001	-2.26739E-001	8.04705E-006	-7.68739E-006	1.57344E-005	-2.53000E-001	3.77706E-004	7	..........a	-327.68
	62	0.21	-1.99604E-001	-2.49994E-001	-2.24799E-001	8.03895E-006	-7.68449E-006	1.57234E-005	-2.51000E-001	3.47706E-004	7	..........a	-327.68
	63	0.213333	-1.97569E-001	-2.47949E-001	-2.22759E-001	8.04045E-006	-7.68009E-006	1.57205E-005	-2.49000E-001	3.37706E-004	7	..........a	-327.68
	64	0.216667	-1.95534E-001	-2.45959E-001	-2.20747E-001	8.03355E-006	-7.67599E-006	1.57095E-005	-2.47000E-001	3.22706E-004	7	..........a	-327.68
	65	0.22	-1.93664E-001	-2.43939E-001	-2.18802E-001	8.03305E-006	-7.67459E-006	1.57076E-005	-2.45000E-001	3.52706E-004	7	..........a	-327.68
	66	0.223333	-1.91504E-001	-2.41929E-001	-2.16717E-001	8.03175E-006	-7.67159E-006	1.57033E-005	-2.43000E-001	3.32706E-004	7	..........a	-327.68
	67	0.226667	-1.89529E-001	-2.39934E-001	-2.14732E-001	8.03085E-006	-7.66859E-006	1.56994E-005	-2.41000E-001	3.97706E-004	7	..........a	-327.68
	68	0.23	-1.87489E-001	-2.37894E-001	-2.12692E-001	8.02995E-006	-7.66439E-006	1.56943E-005	-2.39000E-001	3.57706E-004	7	..........a	-327.68
	69	0.233333	-1.85484E-001	-2.35934E-001	-2.10709E-001	8.02685E-006	-7.66499E-006	1.56918E-005	-2.37000E-001	3.32706E-004	7	..........a	-327.68
	70	0.236667	-1.83574E-001	-2.33944E-001	-2.08759E-001	8.02775E-006	-7.66139E-006	1.56891E-005	-2.35000E-001	3.17706E-004	7	..........a	-327.68
	71	0.24	-1.81474E-001	-2.31979E-001	-2.06727E-001	8.02565E-006	-7.65999E-006	1.56856E-005	-2.33000E-001	3.57706E-004	7	..........a	-327.68
	72	0.243333	-1.79549E-001	-2.30009E-001	-2.04779E-001	8.02585E-006	-7.66019E-006	1.56860E-005	-2.31000E-001	3.57706E-004	7	..........a	-327.68
	73	0.246667	-1.77544E-001	-2.27924E-001	-2.02734E-001	8.01985E-006	-7.65799E-006	1.56778E-005	-2.29000E-001	3.22706E-004	7	..........a	-327.68
	74	0.25	-1.75509E-001	-2.25959E-001	-2.00734E-001	8.02195E-006	-7.65819E-006	1.56801E-005	-2.27000E-001	3.37706E-004	7	..........a	-327.68
	75	0.253333	-1.73474E-001	-2.23984E-001	-1.98729E-001	8.02365E-006	-7.65549E-006	1.56791E-005	-2.25000E-001	3.17706E-004	7	..........a	-327.68
	76	0.256667	-1.71519E-001	-2.21919E-001	-1.96719E-001	8.02055E-006	-7.65239E-006	1.56729E-005	-2.23000E-001	3.37706E-004	7	..........a	-327.68
	77	0.26	-1.69499E-001	-2.20009E-001	-1.94754E-001	8.01155E-006	-7.65179E-006	1.56633E-005	-2.21000E-001	3.37706E-004	7	..........a	-327.68
	78	0.263333	-1.67494E-001	-2.17969E-001	-1.92732E-001	8.01815E-006	-7.65179E-006	1.56699E-005	-2.19000E-001	3.52706E-004	7	..........a	-327.68
	79	0.266667	-1.65514E-001	-2.15979E-001	-1.90747E-001	8.01284E-006	-7.64919E-006	1.56620E-005	-2.17000E-001	2.87706E-004	7	..........a	-327.68
	80	0.27	-1.63539E-001	-2.13984E-001	-1.88762E-001	8.01304E-006	-7.64839E-006	1.56614E-005	-2.15000E-001	3.27706E-004	7	..........a	-327.68
	81	0.273333	-1.61524E-001	-2.11969E-001	-1.86747E-001	8.01024E-006	-7.64209E-006	1.56523E-005	-2.13000E-001	3.12706E-004	7	..........a	-327.68
	82	0.276667	-1.59494E-001	-2.09999E-001	-1.84747E-001	8.01124E-006	-7.64539E-006	1.56566E-005	-2.11000E-001	3.52706E-004	7	..........a	-327.68
	83	0.28	-1.57504E-001	-2.07994E-001	-1.82749E-001	8.01244E-006	-7.63829E-006	1.56507E-005	-2.09000E-001	3.47706E-004	7	..........a	-327.68
	84	0.283333	-1.55504E-001	-2.06004E-001	-1.80754E-001	8.01004E-006	-7.64599E-006	1.56560E-005	-2.07000E-001	3.22706E-004	7	..........a	-327.68
	85	0.286667	-1.53509E-001	-2.03974E-001	-1.78742E-001	8.00924E-006	-7.63959E-006	1.56488E-005	-2.05000E-001	2.92706E-004	7	..........a	-327.68
	86	0.29	-1.51504E-001	-2.02014E-001	-1.76759E-001	8.00854E-006	-7.64109E-006	1.56496E-005	-2.03000E-001	3.72706E-004	7	..........a	-327.68
	87	0.293333	-1.49494E-001	-2.00049E-001	-1.74772E-001	8.01165E-006	-7.64019E-006	1.56518E-005	-2.01000E-001	3.27706E-004	7	..........a	-327.68
	88	0.296667	-1.47504E-001	-1.97924E-001	-1.72714E-001	8.00564E-006	-7.64069E-006	1.56463E-005	-1.99000E-001	3.42706E-004	7	..........a	-327.68
	89	0.3	-1.45464E-001	-1.95959E-001	-1.70712E-001	8.01054E-006	-7.64169E-006	1.56522E-005	-1.97000E-001	3.37706E-004	7	..........a	-327.68
	90	0.303333	-1.43614E-001	-1.93994E-001	-1.68804E-001	8.00764E-006	-7.64169E-006	1.56493E-005	-1.95000E-001	3.42706E-004	7	..........a	-327.68
	91	0.306667	-1.41454E-001	-1.91934E-001	-1.66694E-001	8.00754E-006	-7.63839E-006	1.56459E-005	-1.93000E-001	3.12706E-004	7	..........a	-327.68
	92	0.31	-1.39484E-001	-1.90054E-001	-1.64769E-001	8.00634E-006	-7.64259E-006	1.56489E-005	-1.91000E-001	3.82706E-004	7	..........a	-327.68
	93	0.313333	-1.37479E-001	-1.87974E-001	-1.62727E-001	8.01155E-006	-7.64129E-006	1.56528E-005	-1.89000E-001	2.92706E-004	7	..........a	-327.68
	94	0.316667	-1.35464E-001	-1.85934E-001	-1.60699E-001	8.00964E-006	-7.64069E-006	1.56503E-005	-1.87000E-001	3.27706E-004	7	..........a	-327.68
	95	0.32	-1.33504E-001	-1.83959E-001	-1.58732E-001	8.01124E-006	-7.64039E-006	1.56516E-005	-1.85000E-001	3.22706E-004	7	..........a	-327.68
	96	0.323333	-1.31489E-001	-1.81939E-001	-1.56714E-001	8.01294E-006	-7.63899E-006	1.56519E-005	-1.83000E-001	3.52706E-004	7	..........a	-327.68
	97	0.326667	-1.29504E-001	-1.80079E-001	-1.54792E-001	8.01485E-006	-7.63979E-006	1.56546E-005	-1.81000E-001	3.47706E-004	7	..........a	-327.68
	98	0.33	-1.27479E-001	-1.77954E-001	-1.52717E-001	8.01225E-006	-7.63769E-006	1.56499E-005	-1.79000E-001	3.32706E-004	7	..........a	-327.68
	99	0.333333	-1.25489E-001	-1.75994E-001	-1.50742E-001	8.01835E-006	-7.64299E-006	1.56613E-005	-1.77000E-001	3.17706E-004	7	..........a	-327.68
	100	0.336667	-1.23499E-001	-1.74014E-001	-1.48757E-001	8.01685E-006	-7.64299E-006	1.56598E-005	-1.75000E-001	3.17706E-004	7	..........a	-327.68
