EXPLAIN
TAG	SQUARE_WAVE
TITLE	LABEL	Square Wave Voltammetry	Test Identifier
DATE	LABEL	8/10/2020	Date
TIME	LABEL	16:40:15	Time
NOTES	NOTES	1	Notes...
	 STD2 1 fgml 08102
PSTAT	PSTAT	REF600-24079	Potentiostat
VINIT	QUANT	-3.50000E-001	Initial E (V)
VFINAL	QUANT	-1.50000E-001	Final E (V)
STEPSIZE	QUANT	2.00000E+000	Step Size (mV)
TIMERRES	QUANT	3.33340E-005	&Timer Resolution
FREQUENCY	QUANT	1.00000E+001	Frequency (Hz)
PULSESIZE	QUANT	2.50000E+001	Pulse Size E (mV)
PULSEON	QUANT	1.00000E-001	Pulse &Time (s)
NOISEREJECT	TOGGLE	F	Noise Rejection
AREA	QUANT	2.00000E-002	Sample Area (cm^2)
IMODE	SELECTOR	1	I/E Range Mode
IRANGE	QUANT	1.00000E-003	Max Current (mA)
EQDELAY	IQUANT	10	Equil. Time (s)
IRCOMP	SELECTOR	0	IRComp
PFCOR	QUANT	5.00000E+001	PF Corr. (ohm)
CYCLES	IQUANT	101	C&ycles (#)
ELECTRODETYPE	SELECTOR	0	Electrode Type
STRIPPING	TOGGLE	F	Used for Stripping
POLARITY	TOGGLE	F	Signal Polarity
LINEFREQ	IQUANT	60	Line Frequency (Hz)
INTPERIOD	QUANT	3.3334E-005	Integration Period (s)
SEQUENCER	TOGGLE	TRUE	Run as Sequence
PSTATMODEL	IQUANT	4	Pstat Model
PSTATSECTION	LABEL	REF600-24079	Pstat Section
PSTATSERIALNO	LABEL	24079	Pstat Serial Number
CTRLMODE	IQUANT	1	Control Mode
ELECTROMETER	IQUANT	0	RE=0 or CS=1
IESTAB	IQUANT	2	I/E Stability
CASPEED	IQUANT	6	Control Amp Speed
CONVENTION	IQUANT	1	Current Convention
ICHRANGE	IQUANT	2	Ich Range
ICHRANGEMODE	TOGGLE	F	Ich Auto Range
ICHOFFSETENABLE	TOGGLE	F	Ich Offset Enable
ICHOFFSET	QUANT	0	Ich Offset (V)
ICHFILTER	IQUANT	2	Ich Filter
VCHRANGE	IQUANT	2	Vch Range
VCHRANGEMODE	TOGGLE	F	Vch Auto Range
VCHOFFSETENABLE	TOGGLE	F	Vch Offset Enable
VCHOFFSET	QUANT	0	Vch Offset (V)
VCHFILTER	IQUANT	2	Vch Filter
ACHRANGE	IQUANT	2	Ach Range
ACHOFFSETENABLE	TOGGLE	F	Ach Offset Enable
ACHOFFSET	QUANT	0	Ach Offset (V)
ACHFILTER	IQUANT	1	Ach Filter
IERANGELOWERLIMIT	IQUANT	1	I/E Range Lower Limit
IERANGEMODE	TOGGLE	F	I/E AutoRange
IERANGE	IQUANT	6	I/E Range
POSFEEDENABLE	TOGGLE	F	Positive Feedback IR Comp
POSFEEDRESISTANCE	QUANT	0	Positive Feedback Resistance (ohm)
ACHSELECT	IQUANT	0	Ach Select
SENSECABLEID	IQUANT	13	Sense Cable ID
PWRCABLEID	IQUANT	13	Power Cable ID
DCCALDATE	LABEL	6/30/2020	DC Calibration Date
ACCALDATE	LABEL	6/30/2020	AC Calibration Date
THERMOSELECT	IQUANT	1	Thermo Select
FRAMEWORKVERSION	LABEL	7.8.2	Framework Version
INSTRUMENTVERSION	LABEL	4.40	Instrument Version
CURVE	TABLE	101
	Pt	T	Vfwd	Vrev	Vstep	Ifwd	Irev	Idif	Sig	Ach	IERange	Over	Temp
	#	s	V	V	V	A	A	A	V	V	#	bits	deg C
	0	0.1	-3.24886E-001	-3.74882E-001	-3.49884E-001	-9.98158E-008	-1.76119E-007	7.63037E-008	-3.75000E-001	4.12039E-004	6	..........a	-327.68
	1	0.2	-3.22860E-001	-3.72879E-001	-3.47870E-001	-8.62101E-008	-1.69891E-007	8.36813E-008	-3.73000E-001	3.91206E-004	6	..........a	-327.68
	2	0.3	-3.20854E-001	-3.70787E-001	-3.45820E-001	-8.29373E-008	-1.66096E-007	8.31582E-008	-3.71000E-001	4.09873E-004	6	..........a	-327.68
	3	0.4	-3.18839E-001	-3.68726E-001	-3.43783E-001	-8.05477E-008	-1.63404E-007	8.28559E-008	-3.69000E-001	4.01539E-004	6	..........a	-327.68
	4	0.5	-3.16805E-001	-3.66860E-001	-3.41832E-001	-7.84941E-008	-1.60236E-007	8.17417E-008	-3.67000E-001	3.94206E-004	6	..........a	-327.68
	5	0.6	-3.14889E-001	-3.64892E-001	-3.39891E-001	-7.66655E-008	-1.57506E-007	8.08406E-008	-3.65000E-001	4.09373E-004	6	..........a	-327.68
	6	0.7	-3.12672E-001	-3.62809E-001	-3.37740E-001	-7.45292E-008	-1.55206E-007	8.06769E-008	-3.63000E-001	4.14206E-004	6	..........a	-327.68
	7	0.8	-3.10857E-001	-3.60841E-001	-3.35849E-001	-7.28997E-008	-1.52658E-007	7.97581E-008	-3.61000E-001	3.99706E-004	6	..........a	-327.68
	8	0.9	-3.08875E-001	-3.58858E-001	-3.33866E-001	-7.11431E-008	-1.50123E-007	7.89797E-008	-3.59000E-001	4.18873E-004	6	..........a	-327.68
	9	1	-3.06831E-001	-3.56870E-001	-3.31851E-001	-6.96326E-008	-1.47828E-007	7.81956E-008	-3.57000E-001	4.17039E-004	6	..........a	-327.68
	10	1.1	-3.04839E-001	-3.54839E-001	-3.29839E-001	-6.77754E-008	-1.45410E-007	7.76342E-008	-3.55000E-001	3.97539E-004	6	..........a	-327.68
	11	1.2	-3.02874E-001	-3.52890E-001	-3.27882E-001	-6.60292E-008	-1.42851E-007	7.68221E-008	-3.53000E-001	4.01873E-004	6	..........a	-327.68
	12	1.3	-3.00882E-001	-3.50876E-001	-3.25879E-001	-6.43913E-008	-1.40675E-007	7.62837E-008	-3.51000E-001	4.10539E-004	6	..........a	-327.68
	13	1.4	-2.98851E-001	-3.48878E-001	-3.23865E-001	-6.28931E-008	-1.38305E-007	7.54116E-008	-3.49000E-001	4.03873E-004	6	..........a	-327.68
	14	1.5	-2.96863E-001	-3.46874E-001	-3.21868E-001	-6.09905E-008	-1.36172E-007	7.51819E-008	-3.47000E-001	4.16206E-004	6	..........a	-327.68
	15	1.6	-2.94851E-001	-3.44820E-001	-3.19835E-001	-5.94626E-008	-1.33875E-007	7.44125E-008	-3.45000E-001	4.26873E-004	6	..........a	-327.68
	16	1.7	-2.92781E-001	-3.42838E-001	-3.17810E-001	-5.78491E-008	-1.31808E-007	7.39587E-008	-3.43000E-001	4.16373E-004	6	..........a	-327.68
	17	1.8	-2.90802E-001	-3.40893E-001	-3.15848E-001	-5.62156E-008	-1.29554E-007	7.33387E-008	-3.41000E-001	4.21373E-004	6	..........a	-327.68
	18	1.9	-2.88663E-001	-3.38843E-001	-3.13753E-001	-5.45804E-008	-1.27448E-007	7.28679E-008	-3.39000E-001	4.10373E-004	6	..........a	-327.68
	19	2	-2.86846E-001	-3.36783E-001	-3.11814E-001	-5.30092E-008	-1.25449E-007	7.24399E-008	-3.37000E-001	4.26706E-004	6	..........a	-327.68
	20	2.1	-2.84839E-001	-3.34863E-001	-3.09851E-001	-5.14756E-008	-1.23673E-007	7.21972E-008	-3.35000E-001	4.13373E-004	6	..........a	-327.68
	21	2.2	-2.82811E-001	-3.32865E-001	-3.07838E-001	-5.02115E-008	-1.21519E-007	7.13074E-008	-3.33000E-001	4.10373E-004	6	..........a	-327.68
	22	2.3	-2.80822E-001	-3.30825E-001	-3.05823E-001	-4.85656E-008	-1.19717E-007	7.11514E-008	-3.31000E-001	4.08873E-004	6	..........a	-327.68
	23	2.4	-2.78852E-001	-3.28870E-001	-3.03861E-001	-4.72808E-008	-1.17901E-007	7.06206E-008	-3.29000E-001	4.11039E-004	6	..........a	-327.68
	24	2.5	-2.76866E-001	-3.26883E-001	-3.01874E-001	-4.55425E-008	-1.15830E-007	7.02876E-008	-3.27000E-001	4.22706E-004	6	..........a	-327.68
	25	2.6	-2.74845E-001	-3.24869E-001	-2.99857E-001	-4.41854E-008	-1.14115E-007	6.99292E-008	-3.25000E-001	4.14706E-004	6	..........a	-327.68
	26	2.7	-2.72864E-001	-3.22860E-001	-2.97862E-001	-4.28479E-008	-1.12249E-007	6.94012E-008	-3.23000E-001	3.98206E-004	6	..........a	-327.68
	27	2.8	-2.70874E-001	-3.20869E-001	-2.95872E-001	-4.13840E-008	-1.10600E-007	6.92158E-008	-3.21000E-001	4.16539E-004	6	..........a	-327.68
	28	2.9	-2.68875E-001	-3.18845E-001	-2.93860E-001	-3.97801E-008	-1.08899E-007	6.91185E-008	-3.19000E-001	4.23706E-004	6	..........a	-327.68
	29	3	-2.66805E-001	-3.16826E-001	-2.91815E-001	-3.85030E-008	-1.07316E-007	6.88128E-008	-3.17000E-001	4.15373E-004	6	..........a	-327.68
	30	3.1	-2.64694E-001	-3.14888E-001	-2.89791E-001	-3.69378E-008	-1.05528E-007	6.85901E-008	-3.15000E-001	4.17206E-004	6	..........a	-327.68
	31	3.2	-2.62906E-001	-3.12675E-001	-2.87790E-001	-3.55436E-008	-1.04012E-007	6.84684E-008	-3.13000E-001	4.08039E-004	6	..........a	-327.68
	32	3.3	-2.60777E-001	-3.10869E-001	-2.85823E-001	-3.41848E-008	-1.02383E-007	6.81987E-008	-3.11000E-001	4.04039E-004	6	..........a	-327.68
	33	3.4	-2.58817E-001	-3.08868E-001	-2.83842E-001	-3.28796E-008	-1.00953E-007	6.80737E-008	-3.09000E-001	3.98039E-004	6	..........a	-327.68
	34	3.5	-2.56825E-001	-3.06840E-001	-2.81833E-001	-3.17221E-008	-9.96598E-008	6.79376E-008	-3.07000E-001	4.12373E-004	6	..........a	-327.68
	35	3.6	-2.54879E-001	-3.04843E-001	-2.79861E-001	-3.05370E-008	-9.81172E-008	6.75803E-008	-3.05000E-001	4.06873E-004	6	..........a	-327.68
	36	3.7	-2.52853E-001	-3.02886E-001	-2.77869E-001	-2.89414E-008	-9.65130E-008	6.75716E-008	-3.03000E-001	4.04206E-004	6	..........a	-327.68
	37	3.8	-2.50847E-001	-3.00903E-001	-2.75875E-001	-2.78620E-008	-9.51992E-008	6.73372E-008	-3.01000E-001	4.12539E-004	6	..........a	-327.68
	38	3.9	-2.48871E-001	-2.98875E-001	-2.73873E-001	-2.66351E-008	-9.35767E-008	6.69415E-008	-2.99000E-001	4.03539E-004	6	..........a	-327.68
	39	4	-2.46882E-001	-2.96898E-001	-2.71890E-001	-2.57100E-008	-9.24585E-008	6.67485E-008	-2.97000E-001	4.01873E-004	6	..........a	-327.68
	40	4.1	-2.44874E-001	-2.94896E-001	-2.69885E-001	-2.43695E-008	-9.12123E-008	6.68428E-008	-2.95000E-001	4.18706E-004	6	..........a	-327.68
	41	4.2	-2.42789E-001	-2.92694E-001	-2.67741E-001	-2.32457E-008	-8.96318E-008	6.63861E-008	-2.93000E-001	4.10706E-004	6	..........a	-327.68
	42	4.3	-2.40681E-001	-2.90819E-001	-2.65750E-001	-2.22716E-008	-8.83123E-008	6.60407E-008	-2.91000E-001	4.07539E-004	6	..........a	-327.68
	43	4.4	-2.38865E-001	-2.88728E-001	-2.63797E-001	-2.13315E-008	-8.70235E-008	6.56920E-008	-2.89000E-001	4.22039E-004	6	..........a	-327.68
	44	4.5	-2.36880E-001	-2.86859E-001	-2.61869E-001	-2.03413E-008	-8.55576E-008	6.52163E-008	-2.87000E-001	4.16873E-004	6	..........a	-327.68
	45	4.6	-2.34824E-001	-2.84850E-001	-2.59837E-001	-1.93629E-008	-8.44365E-008	6.50736E-008	-2.85000E-001	4.08373E-004	6	..........a	-327.68
	46	4.7	-2.32815E-001	-2.82820E-001	-2.57817E-001	-1.83357E-008	-8.31743E-008	6.48386E-008	-2.83000E-001	4.06706E-004	6	..........a	-327.68
	47	4.8	-2.30844E-001	-2.80862E-001	-2.55853E-001	-1.73293E-008	-8.18642E-008	6.45349E-008	-2.81000E-001	4.12206E-004	6	..........a	-327.68
	48	4.9	-2.28787E-001	-2.78858E-001	-2.53823E-001	-1.66059E-008	-8.05557E-008	6.39498E-008	-2.79000E-001	4.09039E-004	6	..........a	-327.68
	49	5	-2.26821E-001	-2.76880E-001	-2.51850E-001	-1.56831E-008	-7.92078E-008	6.35248E-008	-2.77000E-001	4.02039E-004	6	..........a	-327.68
	50	5.1	-2.24850E-001	-2.74858E-001	-2.49854E-001	-1.48766E-008	-7.79557E-008	6.30790E-008	-2.75000E-001	4.19039E-004	6	..........a	-327.68
	51	5.2	-2.22861E-001	-2.72855E-001	-2.47858E-001	-1.38985E-008	-7.67032E-008	6.28047E-008	-2.73000E-001	4.10873E-004	6	..........a	-327.68
	52	5.3	-2.20857E-001	-2.70867E-001	-2.45862E-001	-1.32011E-008	-7.56971E-008	6.24960E-008	-2.71000E-001	4.16206E-004	6	..........a	-327.68
	53	5.4	-2.18862E-001	-2.68879E-001	-2.43871E-001	-1.23870E-008	-7.44812E-008	6.20942E-008	-2.69000E-001	4.31206E-004	6	..........a	-327.68
	54	5.5	-2.16630E-001	-2.66792E-001	-2.41711E-001	-1.15849E-008	-7.32061E-008	6.16212E-008	-2.67000E-001	4.22706E-004	6	..........a	-327.68
	55	5.6	-2.14828E-001	-2.64683E-001	-2.39755E-001	-1.09141E-008	-7.17182E-008	6.08041E-008	-2.65000E-001	4.13539E-004	6	..........a	-327.68
	56	5.7	-2.12834E-001	-2.62888E-001	-2.37861E-001	-9.87801E-009	-7.05997E-008	6.07217E-008	-2.63000E-001	4.25373E-004	6	..........a	-327.68
	57	5.8	-2.10846E-001	-2.60866E-001	-2.35856E-001	-9.46295E-009	-6.97166E-008	6.02537E-008	-2.61000E-001	4.14539E-004	6	..........a	-327.68
	58	5.9	-2.08756E-001	-2.58823E-001	-2.33789E-001	-8.75520E-009	-6.82391E-008	5.94839E-008	-2.59000E-001	4.22539E-004	6	..........a	-327.68
	59	6	-2.06868E-001	-2.56794E-001	-2.31831E-001	-8.10378E-009	-6.72243E-008	5.91205E-008	-2.57000E-001	4.19706E-004	6	..........a	-327.68
	60	6.1	-2.04829E-001	-2.54883E-001	-2.29856E-001	-7.25467E-009	-6.58741E-008	5.86195E-008	-2.55000E-001	4.15873E-004	6	..........a	-327.68
	61	6.2	-2.02818E-001	-2.52833E-001	-2.27825E-001	-6.54958E-009	-6.48940E-008	5.83444E-008	-2.53000E-001	4.06706E-004	6	..........a	-327.68
	62	6.3	-2.00858E-001	-2.50846E-001	-2.25852E-001	-5.88550E-009	-6.36609E-008	5.77754E-008	-2.51000E-001	4.22039E-004	6	..........a	-327.68
	63	6.4	-1.98875E-001	-2.48847E-001	-2.23861E-001	-5.25075E-009	-6.24924E-008	5.72416E-008	-2.49000E-001	4.21873E-004	6	..........a	-327.68
	64	6.5	-1.96876E-001	-2.46866E-001	-2.21871E-001	-4.40564E-009	-6.13489E-008	5.69432E-008	-2.47000E-001	4.03706E-004	6	..........a	-327.68
	65	6.6	-1.94847E-001	-2.44875E-001	-2.19861E-001	-3.53520E-009	-6.05248E-008	5.69896E-008	-2.45000E-001	4.09039E-004	6	..........a	-327.68
	66	6.7	-1.92864E-001	-2.42799E-001	-2.17832E-001	-3.00680E-009	-5.92510E-008	5.62442E-008	-2.43000E-001	4.12373E-004	6	..........a	-327.68
	67	6.8	-1.90831E-001	-2.40677E-001	-2.15754E-001	-2.54074E-009	-5.80421E-008	5.55014E-008	-2.41000E-001	4.21039E-004	6	..........a	-327.68
	68	6.9	-1.88782E-001	-2.38864E-001	-2.13823E-001	-1.88399E-009	-5.72207E-008	5.53367E-008	-2.39000E-001	4.08206E-004	6	..........a	-327.68
	69	7	-1.86828E-001	-2.36873E-001	-2.11851E-001	-1.21424E-009	-5.61889E-008	5.49747E-008	-2.37000E-001	4.17206E-004	6	..........a	-327.68
	70	7.1	-1.84712E-001	-2.34824E-001	-2.09768E-001	-4.54474E-010	-5.51741E-008	5.47196E-008	-2.35000E-001	4.10373E-004	6	..........a	-327.68
	71	7.2	-1.82844E-001	-2.32811E-001	-2.07827E-001	3.75881E-011	-5.41310E-008	5.41686E-008	-2.33000E-001	4.11539E-004	6	..........a	-327.68
	72	7.3	-1.80826E-001	-2.30854E-001	-2.05840E-001	4.83312E-010	-5.32692E-008	5.37525E-008	-2.31000E-001	4.11206E-004	6	..........a	-327.68
	73	7.4	-1.78811E-001	-2.28840E-001	-2.03826E-001	1.20940E-009	-5.24191E-008	5.36285E-008	-2.29000E-001	4.03206E-004	6	..........a	-327.68
	74	7.5	-1.76839E-001	-2.26825E-001	-2.01832E-001	1.71213E-009	-5.12633E-008	5.29754E-008	-2.27000E-001	4.01873E-004	6	..........a	-327.68
	75	7.6	-1.74864E-001	-2.24858E-001	-1.99861E-001	2.23787E-009	-5.08189E-008	5.30568E-008	-2.25000E-001	3.88873E-004	6	..........a	-327.68
	76	7.7	-1.72871E-001	-2.22869E-001	-1.97870E-001	2.78294E-009	-4.99091E-008	5.26920E-008	-2.23000E-001	4.00039E-004	6	..........a	-327.68
	77	7.8	-1.70836E-001	-2.20869E-001	-1.95852E-001	3.15032E-009	-4.89987E-008	5.21490E-008	-2.21000E-001	3.89539E-004	6	..........a	-327.68
	78	7.9	-1.68867E-001	-2.18863E-001	-1.93865E-001	3.97376E-009	-4.81019E-008	5.20756E-008	-2.19000E-001	3.86373E-004	6	..........a	-327.68
	79	8	-1.66886E-001	-2.16609E-001	-1.91747E-001	4.31580E-009	-4.74251E-008	5.17409E-008	-2.17000E-001	3.90373E-004	6	..........a	-327.68
	80	8.1	-1.64749E-001	-2.14828E-001	-1.89789E-001	4.84120E-009	-4.67264E-008	5.15676E-008	-2.15000E-001	3.93873E-004	6	..........a	-327.68
	81	8.2	-1.62796E-001	-2.12908E-001	-1.87852E-001	5.42194E-009	-4.56536E-008	5.10755E-008	-2.13000E-001	4.07039E-004	6	..........a	-327.68
	82	8.3	-1.60695E-001	-2.10866E-001	-1.85781E-001	6.05435E-009	-4.50835E-008	5.11378E-008	-2.11000E-001	3.93206E-004	6	..........a	-327.68
	83	8.4	-1.58846E-001	-2.08733E-001	-1.83789E-001	6.50408E-009	-4.40160E-008	5.05201E-008	-2.09000E-001	3.99206E-004	6	..........a	-327.68
	84	8.5	-1.56819E-001	-2.06859E-001	-1.81839E-001	7.07948E-009	-4.33713E-008	5.04508E-008	-2.07000E-001	3.75873E-004	6	..........a	-327.68
	85	8.6	-1.54818E-001	-2.04857E-001	-1.79838E-001	7.66022E-009	-4.28282E-008	5.04884E-008	-2.05000E-001	3.85706E-004	6	..........a	-327.68
	86	8.7	-1.52822E-001	-2.02832E-001	-1.77827E-001	8.16429E-009	-4.19258E-008	5.00900E-008	-2.03000E-001	3.96373E-004	6	..........a	-327.68
	87	8.8	-1.50866E-001	-2.00857E-001	-1.75861E-001	8.70202E-009	-4.14760E-008	5.01781E-008	-2.01000E-001	4.00873E-004	6	..........a	-327.68
	88	8.9	-1.48842E-001	-1.98881E-001	-1.73861E-001	8.98339E-009	-4.06099E-008	4.95933E-008	-1.99000E-001	4.09873E-004	6	..........a	-327.68
	89	9	-1.46846E-001	-1.96872E-001	-1.71859E-001	9.42445E-009	-4.00362E-008	4.94606E-008	-1.97000E-001	3.83873E-004	6	..........a	-327.68
	90	9.1	-1.44878E-001	-1.94854E-001	-1.69866E-001	9.98085E-009	-3.94068E-008	4.93876E-008	-1.95000E-001	3.83373E-004	6	..........a	-327.68
	91	9.2	-1.42887E-001	-1.92873E-001	-1.67880E-001	1.05323E-008	-3.88157E-008	4.93479E-008	-1.93000E-001	3.85206E-004	6	..........a	-327.68
	92	9.3	-1.40875E-001	-1.90823E-001	-1.65849E-001	1.08813E-008	-3.81303E-008	4.90116E-008	-1.91000E-001	3.82039E-004	6	..........a	-327.68
	93	9.4	-1.38767E-001	-1.88729E-001	-1.63748E-001	1.12510E-008	-3.76139E-008	4.88649E-008	-1.89000E-001	3.86039E-004	6	..........a	-327.68
	94	9.5	-1.36697E-001	-1.86826E-001	-1.61761E-001	1.16431E-008	-3.68051E-008	4.84482E-008	-1.87000E-001	3.86373E-004	6	..........a	-327.68
	95	9.6	-1.34891E-001	-1.84708E-001	-1.59800E-001	1.22165E-008	-3.62870E-008	4.85035E-008	-1.85000E-001	3.90873E-004	6	..........a	-327.68
	96	9.7	-1.32782E-001	-1.82857E-001	-1.57819E-001	1.27815E-008	-3.57183E-008	4.84998E-008	-1.83000E-001	3.87373E-004	6	..........a	-327.68
	97	9.8	-1.30799E-001	-1.80824E-001	-1.55811E-001	1.30566E-008	-3.51609E-008	4.82175E-008	-1.81000E-001	3.84873E-004	6	..........a	-327.68
	98	9.9	-1.28802E-001	-1.78820E-001	-1.53811E-001	1.36627E-008	-3.45905E-008	4.82531E-008	-1.79000E-001	3.75539E-004	6	..........a	-327.68
	99	10	-1.26865E-001	-1.76835E-001	-1.51850E-001	1.40090E-008	-3.41618E-008	4.81708E-008	-1.77000E-001	3.95539E-004	6	..........a	-327.68
	100	10.1	-1.24806E-001	-1.74874E-001	-1.49840E-001	1.44558E-008	-3.34760E-008	4.79318E-008	-1.75000E-001	3.80706E-004	6	..........a	-327.68
