EXPLAIN
TAG	SQUARE_WAVE
TITLE	LABEL	Square Wave Voltammetry	Test Identifier
DATE	LABEL	8/10/2020	Date
TIME	LABEL	20:28:18	Time
NOTES	NOTES	1	Notes...
	
PSTAT	PSTAT	REF600-24079	Potentiostat
VINIT	QUANT	-3.50000E-001	Initial E (V)
VFINAL	QUANT	-1.50000E-001	Final E (V)
STEPSIZE	QUANT	2.00000E+000	Step Size (mV)
TIMERRES	QUANT	3.33340E-005	&Timer Resolution
FREQUENCY	QUANT	2.50000E+001	Frequency (Hz)
PULSESIZE	QUANT	2.50000E+001	Pulse Size E (mV)
PULSEON	QUANT	4.00000E-002	Pulse &Time (s)
NOISEREJECT	TOGGLE	F	Noise Rejection
AREA	QUANT	2.00000E-002	Sample Area (cm^2)
IMODE	SELECTOR	1	I/E Range Mode
IRANGE	QUANT	1.00000E-003	Max Current (mA)
EQDELAY	IQUANT	10	Equil. Time (s)
IRCOMP	SELECTOR	0	IRComp
PFCOR	QUANT	5.00000E+001	PF Corr. (ohm)
CYCLES	IQUANT	101	C&ycles (#)
ELECTRODETYPE	SELECTOR	0	Electrode Type
STRIPPING	TOGGLE	F	Used for Stripping
POLARITY	TOGGLE	F	Signal Polarity
LINEFREQ	IQUANT	60	Line Frequency (Hz)
INTPERIOD	QUANT	3.3334E-005	Integration Period (s)
SEQUENCER	TOGGLE	TRUE	Run as Sequence
PSTATMODEL	IQUANT	4	Pstat Model
PSTATSECTION	LABEL	REF600-24079	Pstat Section
PSTATSERIALNO	LABEL	24079	Pstat Serial Number
CTRLMODE	IQUANT	1	Control Mode
ELECTROMETER	IQUANT	0	RE=0 or CS=1
IESTAB	IQUANT	2	I/E Stability
CASPEED	IQUANT	6	Control Amp Speed
CONVENTION	IQUANT	1	Current Convention
ICHRANGE	IQUANT	2	Ich Range
ICHRANGEMODE	TOGGLE	F	Ich Auto Range
ICHOFFSETENABLE	TOGGLE	F	Ich Offset Enable
ICHOFFSET	QUANT	0	Ich Offset (V)
ICHFILTER	IQUANT	2	Ich Filter
VCHRANGE	IQUANT	2	Vch Range
VCHRANGEMODE	TOGGLE	F	Vch Auto Range
VCHOFFSETENABLE	TOGGLE	F	Vch Offset Enable
VCHOFFSET	QUANT	0	Vch Offset (V)
VCHFILTER	IQUANT	2	Vch Filter
ACHRANGE	IQUANT	2	Ach Range
ACHOFFSETENABLE	TOGGLE	F	Ach Offset Enable
ACHOFFSET	QUANT	0	Ach Offset (V)
ACHFILTER	IQUANT	1	Ach Filter
IERANGELOWERLIMIT	IQUANT	1	I/E Range Lower Limit
IERANGEMODE	TOGGLE	F	I/E AutoRange
IERANGE	IQUANT	6	I/E Range
POSFEEDENABLE	TOGGLE	F	Positive Feedback IR Comp
POSFEEDRESISTANCE	QUANT	0	Positive Feedback Resistance (ohm)
ACHSELECT	IQUANT	0	Ach Select
SENSECABLEID	IQUANT	13	Sense Cable ID
PWRCABLEID	IQUANT	13	Power Cable ID
DCCALDATE	LABEL	6/30/2020	DC Calibration Date
ACCALDATE	LABEL	6/30/2020	AC Calibration Date
THERMOSELECT	IQUANT	1	Thermo Select
FRAMEWORKVERSION	LABEL	7.8.2	Framework Version
INSTRUMENTVERSION	LABEL	4.40	Instrument Version
CURVE	TABLE	101
	Pt	T	Vfwd	Vrev	Vstep	Ifwd	Irev	Idif	Sig	Ach	IERange	Over	Temp
	#	s	V	V	V	A	A	A	V	V	#	bits	deg C
	0	0.04	-3.24908E-001	-3.75581E-001	-3.50244E-001	-1.05953E-007	-3.35019E-007	2.29066E-007	-3.75000E-001	4.10623E-004	6	..........a	-327.68
	1	0.08	-3.22170E-001	-3.73606E-001	-3.47888E-001	1.35998E-008	-3.20384E-007	3.33984E-007	-3.73000E-001	3.94789E-004	6	..........a	-327.68
	2	0.12	-3.20177E-001	-3.71603E-001	-3.45890E-001	1.95406E-008	-3.13104E-007	3.32645E-007	-3.71000E-001	4.07289E-004	6	..........a	-327.68
	3	0.16	-3.18076E-001	-3.69471E-001	-3.43773E-001	2.47879E-008	-3.05582E-007	3.30370E-007	-3.69000E-001	3.99789E-004	6	..........a	-327.68
	4	0.2	-3.16175E-001	-3.67579E-001	-3.41877E-001	2.73824E-008	-3.02023E-007	3.29405E-007	-3.67000E-001	3.84373E-004	6	..........a	-327.68
	5	0.24	-3.14194E-001	-3.65636E-001	-3.39915E-001	3.01286E-008	-2.96060E-007	3.26189E-007	-3.65000E-001	3.85206E-004	6	..........a	-327.68
	6	0.28	-3.12136E-001	-3.63610E-001	-3.37873E-001	3.40799E-008	-2.91465E-007	3.25545E-007	-3.63000E-001	4.10206E-004	6	..........a	-327.68
	7	0.32	-3.10093E-001	-3.61558E-001	-3.35826E-001	3.45241E-008	-2.87241E-007	3.21765E-007	-3.61000E-001	3.93123E-004	6	..........a	-327.68
	8	0.36	-3.08161E-001	-3.59572E-001	-3.33866E-001	3.86305E-008	-2.81836E-007	3.20467E-007	-3.59000E-001	3.90206E-004	6	..........a	-327.68
	9	0.4	-3.06197E-001	-3.57627E-001	-3.31912E-001	3.95514E-008	-2.79325E-007	3.18876E-007	-3.57000E-001	3.86039E-004	6	..........a	-327.68
	10	0.44	-3.04165E-001	-3.55625E-001	-3.29895E-001	4.19776E-008	-2.73728E-007	3.15705E-007	-3.55000E-001	3.91873E-004	6	..........a	-327.68
	11	0.48	-3.02135E-001	-3.53568E-001	-3.27851E-001	4.51122E-008	-2.70796E-007	3.15909E-007	-3.53000E-001	4.06456E-004	6	..........a	-327.68
	12	0.52	-3.00189E-001	-3.51596E-001	-3.25893E-001	4.55864E-008	-2.67462E-007	3.13048E-007	-3.51000E-001	3.85623E-004	6	..........a	-327.68
	13	0.56	-2.98193E-001	-3.49612E-001	-3.23903E-001	4.87951E-008	-2.62374E-007	3.11170E-007	-3.49000E-001	4.06873E-004	6	..........a	-327.68
	14	0.6	-2.96195E-001	-3.47614E-001	-3.21904E-001	5.03337E-008	-2.60076E-007	3.10409E-007	-3.47000E-001	4.00623E-004	6	..........a	-327.68
	15	0.64	-2.94104E-001	-3.45588E-001	-3.19846E-001	5.18772E-008	-2.55321E-007	3.07198E-007	-3.45000E-001	4.16039E-004	6	..........a	-327.68
	16	0.68	-2.92175E-001	-3.43551E-001	-3.17863E-001	5.46925E-008	-2.52446E-007	3.07138E-007	-3.43000E-001	4.02706E-004	6	..........a	-327.68
	17	0.72	-2.90218E-001	-3.41648E-001	-3.15933E-001	5.50701E-008	-2.49154E-007	3.04224E-007	-3.41000E-001	3.93539E-004	6	..........a	-327.68
	18	0.76	-2.88169E-001	-3.39630E-001	-3.13900E-001	5.83305E-008	-2.44666E-007	3.02997E-007	-3.39000E-001	4.15206E-004	6	..........a	-327.68
	19	0.8	-2.86103E-001	-3.37533E-001	-3.11818E-001	5.90989E-008	-2.42473E-007	3.01572E-007	-3.37000E-001	3.75623E-004	6	..........a	-327.68
	20	0.84	-2.84171E-001	-3.35573E-001	-3.09872E-001	6.09992E-008	-2.38483E-007	2.99482E-007	-3.35000E-001	3.92289E-004	6	..........a	-327.68
	21	0.88	-2.82181E-001	-3.33613E-001	-3.07897E-001	6.38162E-008	-2.35624E-007	2.99441E-007	-3.33000E-001	4.10623E-004	6	..........a	-327.68
	22	0.92	-2.80159E-001	-3.31628E-001	-3.05893E-001	6.42021E-008	-2.32922E-007	2.97124E-007	-3.31000E-001	3.86039E-004	6	..........a	-327.68
	23	0.96	-2.78116E-001	-3.29569E-001	-3.03842E-001	6.68674E-008	-2.29154E-007	2.96022E-007	-3.29000E-001	4.06039E-004	6	..........a	-327.68
	24	1	-2.76171E-001	-3.27594E-001	-3.01883E-001	6.81734E-008	-2.27378E-007	2.95552E-007	-3.27000E-001	3.82289E-004	6	..........a	-327.68
	25	1.04	-2.74183E-001	-3.25617E-001	-2.99900E-001	6.91360E-008	-2.22989E-007	2.92125E-007	-3.25000E-001	4.04373E-004	6	..........a	-327.68
	26	1.08	-2.72182E-001	-3.23608E-001	-2.97895E-001	7.21806E-008	-2.21005E-007	2.93186E-007	-3.23000E-001	3.86456E-004	6	..........a	-327.68
	27	1.12	-2.70160E-001	-3.21587E-001	-2.95873E-001	7.30074E-008	-2.18746E-007	2.91754E-007	-3.21000E-001	3.89789E-004	6	..........a	-327.68
	28	1.16	-2.68182E-001	-3.19561E-001	-2.93871E-001	7.55302E-008	-2.15070E-007	2.90600E-007	-3.19000E-001	4.08123E-004	6	..........a	-327.68
	29	1.2	-2.66211E-001	-3.17630E-001	-2.91921E-001	7.65145E-008	-2.13500E-007	2.90014E-007	-3.17000E-001	4.04373E-004	6	..........a	-327.68
	30	1.24	-2.64181E-001	-3.15644E-001	-2.89912E-001	7.77621E-008	-2.09899E-007	2.87661E-007	-3.15000E-001	4.06456E-004	6	..........a	-327.68
	31	1.28	-2.62130E-001	-3.13577E-001	-2.87853E-001	8.01324E-008	-2.08101E-007	2.88233E-007	-3.13000E-001	4.07289E-004	6	..........a	-327.68
	32	1.32	-2.60181E-001	-3.11583E-001	-2.85882E-001	8.04417E-008	-2.06078E-007	2.86520E-007	-3.11000E-001	3.73123E-004	6	..........a	-327.68
	33	1.36	-2.58193E-001	-3.09610E-001	-2.83901E-001	8.31470E-008	-2.02960E-007	2.86107E-007	-3.09000E-001	4.13539E-004	6	..........a	-327.68
	34	1.4	-2.56144E-001	-3.07619E-001	-2.81882E-001	8.40879E-008	-2.01818E-007	2.85906E-007	-3.07000E-001	4.10623E-004	6	..........a	-327.68
	35	1.44	-2.54109E-001	-3.05560E-001	-2.79834E-001	8.50839E-008	-1.98223E-007	2.83307E-007	-3.05000E-001	3.93123E-004	6	..........a	-327.68
	36	1.48	-2.52175E-001	-3.03592E-001	-2.77883E-001	8.72325E-008	-1.96934E-007	2.84167E-007	-3.03000E-001	4.00623E-004	6	..........a	-327.68
	37	1.52	-2.50193E-001	-3.01621E-001	-2.75907E-001	8.77343E-008	-1.94687E-007	2.82421E-007	-3.01000E-001	4.00206E-004	6	..........a	-327.68
	38	1.56	-2.48166E-001	-2.99628E-001	-2.73897E-001	9.00545E-008	-1.91778E-007	2.81833E-007	-2.99000E-001	3.99789E-004	6	..........a	-327.68
	39	1.6	-2.46134E-001	-2.97592E-001	-2.71863E-001	9.08146E-008	-1.90815E-007	2.81629E-007	-2.97000E-001	3.94373E-004	6	..........a	-327.68
	40	1.64	-2.44175E-001	-2.95598E-001	-2.69887E-001	9.16806E-008	-1.88145E-007	2.79826E-007	-2.95000E-001	3.93539E-004	6	..........a	-327.68
	41	1.68	-2.42213E-001	-2.93633E-001	-2.67923E-001	9.38334E-008	-1.86429E-007	2.80262E-007	-2.93000E-001	3.79789E-004	6	..........a	-327.68
	42	1.72	-2.40126E-001	-2.91648E-001	-2.65887E-001	9.40067E-008	-1.85095E-007	2.79102E-007	-2.91000E-001	4.07706E-004	6	..........a	-327.68
	43	1.76	-2.38138E-001	-2.89582E-001	-2.63860E-001	9.56903E-008	-1.81892E-007	2.77582E-007	-2.89000E-001	3.98123E-004	6	..........a	-327.68
	44	1.8	-2.36187E-001	-2.87593E-001	-2.61890E-001	9.60711E-008	-1.81344E-007	2.77415E-007	-2.87000E-001	4.01456E-004	6	..........a	-327.68
	45	1.84	-2.34200E-001	-2.85616E-001	-2.59908E-001	9.69746E-008	-1.78856E-007	2.75831E-007	-2.85000E-001	3.86456E-004	6	..........a	-327.68
	46	1.88	-2.32144E-001	-2.83607E-001	-2.57875E-001	9.90340E-008	-1.77077E-007	2.76111E-007	-2.83000E-001	3.81456E-004	6	..........a	-327.68
	47	1.92	-2.30118E-001	-2.81559E-001	-2.55838E-001	9.82481E-008	-1.75656E-007	2.73904E-007	-2.81000E-001	3.97289E-004	6	..........a	-327.68
	48	1.96	-2.28176E-001	-2.79571E-001	-2.53873E-001	1.00554E-007	-1.73479E-007	2.74033E-007	-2.79000E-001	4.11456E-004	6	..........a	-327.68
	49	2	-2.26200E-001	-2.77609E-001	-2.51904E-001	1.00533E-007	-1.72426E-007	2.72958E-007	-2.77000E-001	4.07706E-004	6	..........a	-327.68
	50	2.04	-2.24184E-001	-2.75621E-001	-2.49902E-001	1.01153E-007	-1.69182E-007	2.70334E-007	-2.75000E-001	4.03956E-004	6	..........a	-327.68
	51	2.08	-2.22138E-001	-2.73584E-001	-2.47861E-001	1.02875E-007	-1.68653E-007	2.71528E-007	-2.73000E-001	4.03123E-004	6	..........a	-327.68
	52	2.12	-2.20181E-001	-2.71597E-001	-2.45889E-001	1.02042E-007	-1.67424E-007	2.69466E-007	-2.71000E-001	3.99373E-004	6	..........a	-327.68
	53	2.16	-2.18182E-001	-2.69607E-001	-2.43894E-001	1.04120E-007	-1.64673E-007	2.68793E-007	-2.69000E-001	4.19373E-004	6	..........a	-327.68
	54	2.2	-2.16125E-001	-2.67634E-001	-2.41880E-001	1.04241E-007	-1.64104E-007	2.68345E-007	-2.67000E-001	3.82289E-004	6	..........a	-327.68
	55	2.24	-2.14095E-001	-2.65543E-001	-2.39819E-001	1.04511E-007	-1.61372E-007	2.65883E-007	-2.65000E-001	4.06873E-004	6	..........a	-327.68
	56	2.28	-2.12202E-001	-2.63611E-001	-2.37907E-001	1.06090E-007	-1.60241E-007	2.66331E-007	-2.63000E-001	4.13539E-004	6	..........a	-327.68
	57	2.32	-2.10199E-001	-2.61616E-001	-2.35908E-001	1.04844E-007	-1.59396E-007	2.64239E-007	-2.61000E-001	3.93539E-004	6	..........a	-327.68
	58	2.36	-2.08163E-001	-2.59603E-001	-2.33883E-001	1.06632E-007	-1.56744E-007	2.63375E-007	-2.59000E-001	3.82289E-004	6	..........a	-327.68
	59	2.4	-2.06105E-001	-2.57571E-001	-2.31838E-001	1.06764E-007	-1.56518E-007	2.63282E-007	-2.57000E-001	4.03956E-004	6	..........a	-327.68
	60	2.44	-2.04202E-001	-2.55592E-001	-2.29897E-001	1.06848E-007	-1.54308E-007	2.61156E-007	-2.55000E-001	4.07706E-004	6	..........a	-327.68
	61	2.48	-2.02186E-001	-2.53628E-001	-2.27907E-001	1.08599E-007	-1.53163E-007	2.61762E-007	-2.53000E-001	4.15623E-004	6	..........a	-327.68
	62	2.52	-2.00173E-001	-2.51626E-001	-2.25899E-001	1.07735E-007	-1.51797E-007	2.59532E-007	-2.51000E-001	3.80623E-004	6	..........a	-327.68
	63	2.56	-1.98145E-001	-2.49578E-001	-2.23861E-001	1.09248E-007	-1.49878E-007	2.59126E-007	-2.49000E-001	4.23123E-004	6	..........a	-327.68
	64	2.6	-1.96193E-001	-2.47583E-001	-2.21888E-001	1.09084E-007	-1.49637E-007	2.58720E-007	-2.47000E-001	4.01456E-004	6	..........a	-327.68
	65	2.64	-1.94192E-001	-2.45605E-001	-2.19898E-001	1.09445E-007	-1.47250E-007	2.56695E-007	-2.45000E-001	4.07289E-004	6	..........a	-327.68
	66	2.68	-1.92170E-001	-2.43588E-001	-2.17879E-001	1.10987E-007	-1.46196E-007	2.57184E-007	-2.43000E-001	4.05623E-004	6	..........a	-327.68
	67	2.72	-1.90066E-001	-2.41516E-001	-2.15791E-001	1.09724E-007	-1.45123E-007	2.54847E-007	-2.41000E-001	3.94373E-004	6	..........a	-327.68
	68	2.76	-1.88176E-001	-2.39569E-001	-2.13873E-001	1.11090E-007	-1.42596E-007	2.53686E-007	-2.39000E-001	4.01039E-004	6	..........a	-327.68
	69	2.8	-1.86226E-001	-2.37616E-001	-2.11921E-001	1.10891E-007	-1.42851E-007	2.53741E-007	-2.37000E-001	4.01039E-004	6	..........a	-327.68
	70	2.84	-1.84123E-001	-2.35614E-001	-2.09868E-001	1.10640E-007	-1.40687E-007	2.51328E-007	-2.35000E-001	4.21039E-004	6	..........a	-327.68
	71	2.88	-1.82086E-001	-2.33557E-001	-2.07822E-001	1.12883E-007	-1.39901E-007	2.52784E-007	-2.33000E-001	4.11039E-004	6	..........a	-327.68
	72	2.92	-1.80149E-001	-2.31579E-001	-2.05864E-001	1.11666E-007	-1.39341E-007	2.51007E-007	-2.31000E-001	3.81873E-004	6	..........a	-327.68
	73	2.96	-1.78190E-001	-2.29626E-001	-2.03908E-001	1.12965E-007	-1.36867E-007	2.49832E-007	-2.29000E-001	4.07289E-004	6	..........a	-327.68
	74	3	-1.76131E-001	-2.27614E-001	-2.01872E-001	1.13097E-007	-1.37619E-007	2.50717E-007	-2.27000E-001	3.93956E-004	6	..........a	-327.68
	75	3.04	-1.74099E-001	-2.25564E-001	-1.99832E-001	1.12816E-007	-1.35079E-007	2.47895E-007	-2.25000E-001	3.85623E-004	6	..........a	-327.68
	76	3.08	-1.72171E-001	-2.23576E-001	-1.97874E-001	1.13996E-007	-1.34560E-007	2.48556E-007	-2.23000E-001	4.08123E-004	6	..........a	-327.68
	77	3.12	-1.70176E-001	-2.21616E-001	-1.95896E-001	1.13589E-007	-1.33747E-007	2.47336E-007	-2.21000E-001	3.82289E-004	6	..........a	-327.68
	78	3.16	-1.68182E-001	-2.19589E-001	-1.93886E-001	1.15254E-007	-1.32202E-007	2.47456E-007	-2.19000E-001	4.10206E-004	6	..........a	-327.68
	79	3.2	-1.66086E-001	-2.17565E-001	-1.91825E-001	1.14862E-007	-1.32541E-007	2.47403E-007	-2.17000E-001	4.00206E-004	6	..........a	-327.68
	80	3.24	-1.64157E-001	-2.15562E-001	-1.89860E-001	1.14700E-007	-1.30157E-007	2.44857E-007	-2.15000E-001	4.06873E-004	6	..........a	-327.68
	81	3.28	-1.62214E-001	-2.13640E-001	-1.87927E-001	1.16472E-007	-1.29873E-007	2.46346E-007	-2.13000E-001	3.96039E-004	6	..........a	-327.68
	82	3.32	-1.60133E-001	-2.11611E-001	-1.85872E-001	1.15337E-007	-1.29062E-007	2.44399E-007	-2.11000E-001	4.18539E-004	6	..........a	-327.68
	83	3.36	-1.58098E-001	-2.09546E-001	-1.83822E-001	1.16776E-007	-1.27566E-007	2.44342E-007	-2.09000E-001	4.03539E-004	6	..........a	-327.68
	84	3.4	-1.56151E-001	-2.07565E-001	-1.81858E-001	1.16564E-007	-1.27731E-007	2.44294E-007	-2.07000E-001	3.96039E-004	6	..........a	-327.68
	85	3.44	-1.54165E-001	-2.05598E-001	-1.79881E-001	1.17000E-007	-1.25974E-007	2.42974E-007	-2.05000E-001	3.94373E-004	6	..........a	-327.68
	86	3.48	-1.52130E-001	-2.03626E-001	-1.77878E-001	1.18738E-007	-1.25639E-007	2.44377E-007	-2.03000E-001	3.84789E-004	6	..........a	-327.68
	87	3.52	-1.50107E-001	-2.01583E-001	-1.75845E-001	1.17313E-007	-1.25349E-007	2.42662E-007	-2.01000E-001	3.91873E-004	6	..........a	-327.68
	88	3.56	-1.48165E-001	-1.99580E-001	-1.73872E-001	1.18787E-007	-1.23370E-007	2.42157E-007	-1.99000E-001	3.82706E-004	6	..........a	-327.68
	89	3.6	-1.46168E-001	-1.97608E-001	-1.71888E-001	1.18885E-007	-1.23390E-007	2.42275E-007	-1.97000E-001	3.95623E-004	6	..........a	-327.68
	90	3.64	-1.44161E-001	-1.95601E-001	-1.69881E-001	1.19027E-007	-1.22179E-007	2.41206E-007	-1.95000E-001	3.91039E-004	6	..........a	-327.68
	91	3.68	-1.42139E-001	-1.93577E-001	-1.67858E-001	1.20715E-007	-1.21905E-007	2.42620E-007	-1.93000E-001	3.88123E-004	6	..........a	-327.68
	92	3.72	-1.40158E-001	-1.91549E-001	-1.65854E-001	1.19632E-007	-1.21453E-007	2.41085E-007	-1.91000E-001	3.98123E-004	6	..........a	-327.68
	93	3.76	-1.38201E-001	-1.89624E-001	-1.63912E-001	1.21724E-007	-1.19880E-007	2.41604E-007	-1.89000E-001	3.84789E-004	6	..........a	-327.68
	94	3.8	-1.36158E-001	-1.87634E-001	-1.61896E-001	1.21529E-007	-1.20654E-007	2.42182E-007	-1.87000E-001	3.83956E-004	6	..........a	-327.68
	95	3.84	-1.34123E-001	-1.85586E-001	-1.59854E-001	1.21241E-007	-1.18283E-007	2.39524E-007	-1.85000E-001	3.94789E-004	6	..........a	-327.68
	96	3.88	-1.32159E-001	-1.83566E-001	-1.57862E-001	1.22970E-007	-1.18978E-007	2.41947E-007	-1.83000E-001	3.99373E-004	6	..........a	-327.68
	97	3.92	-1.30180E-001	-1.81594E-001	-1.55887E-001	1.22578E-007	-1.18780E-007	2.41358E-007	-1.81000E-001	3.83123E-004	6	..........a	-327.68
	98	3.96	-1.28133E-001	-1.79590E-001	-1.53862E-001	1.23939E-007	-1.16848E-007	2.40787E-007	-1.79000E-001	3.98539E-004	6	..........a	-327.68
	99	4	-1.26091E-001	-1.77538E-001	-1.51815E-001	1.23778E-007	-1.17588E-007	2.41366E-007	-1.77000E-001	3.91039E-004	6	..........a	-327.68
	100	4.04	-1.24166E-001	-1.75579E-001	-1.49873E-001	1.23741E-007	-1.16663E-007	2.40404E-007	-1.75000E-001	4.01039E-004	6	..........a	-327.68
