EXPLAIN
TAG	SQUARE_WAVE
TITLE	LABEL	Square Wave Voltammetry	Test Identifier
DATE	LABEL	8/10/2020	Date
TIME	LABEL	16:39:24	Time
NOTES	NOTES	1	Notes...
	 STD2 1 fg/mL 08102
PSTAT	PSTAT	REF600-24079	Potentiostat
VINIT	QUANT	-3.50000E-001	Initial E (V)
VFINAL	QUANT	-1.50000E-001	Final E (V)
STEPSIZE	QUANT	2.00000E+000	Step Size (mV)
TIMERRES	QUANT	3.33340E-005	&Timer Resolution
FREQUENCY	QUANT	1.00000E+001	Frequency (Hz)
PULSESIZE	QUANT	2.50000E+001	Pulse Size E (mV)
PULSEON	QUANT	1.00000E-001	Pulse &Time (s)
NOISEREJECT	TOGGLE	F	Noise Rejection
AREA	QUANT	2.00000E-002	Sample Area (cm^2)
IMODE	SELECTOR	1	I/E Range Mode
IRANGE	QUANT	1.00000E-003	Max Current (mA)
EQDELAY	IQUANT	10	Equil. Time (s)
IRCOMP	SELECTOR	0	IRComp
PFCOR	QUANT	5.00000E+001	PF Corr. (ohm)
CYCLES	IQUANT	101	C&ycles (#)
ELECTRODETYPE	SELECTOR	0	Electrode Type
STRIPPING	TOGGLE	F	Used for Stripping
POLARITY	TOGGLE	F	Signal Polarity
LINEFREQ	IQUANT	60	Line Frequency (Hz)
INTPERIOD	QUANT	3.3334E-005	Integration Period (s)
SEQUENCER	TOGGLE	TRUE	Run as Sequence
PSTATMODEL	IQUANT	4	Pstat Model
PSTATSECTION	LABEL	REF600-24079	Pstat Section
PSTATSERIALNO	LABEL	24079	Pstat Serial Number
CTRLMODE	IQUANT	1	Control Mode
ELECTROMETER	IQUANT	0	RE=0 or CS=1
IESTAB	IQUANT	2	I/E Stability
CASPEED	IQUANT	6	Control Amp Speed
CONVENTION	IQUANT	1	Current Convention
ICHRANGE	IQUANT	2	Ich Range
ICHRANGEMODE	TOGGLE	F	Ich Auto Range
ICHOFFSETENABLE	TOGGLE	F	Ich Offset Enable
ICHOFFSET	QUANT	0	Ich Offset (V)
ICHFILTER	IQUANT	2	Ich Filter
VCHRANGE	IQUANT	2	Vch Range
VCHRANGEMODE	TOGGLE	F	Vch Auto Range
VCHOFFSETENABLE	TOGGLE	F	Vch Offset Enable
VCHOFFSET	QUANT	0	Vch Offset (V)
VCHFILTER	IQUANT	2	Vch Filter
ACHRANGE	IQUANT	2	Ach Range
ACHOFFSETENABLE	TOGGLE	F	Ach Offset Enable
ACHOFFSET	QUANT	0	Ach Offset (V)
ACHFILTER	IQUANT	1	Ach Filter
IERANGELOWERLIMIT	IQUANT	1	I/E Range Lower Limit
IERANGEMODE	TOGGLE	F	I/E AutoRange
IERANGE	IQUANT	6	I/E Range
POSFEEDENABLE	TOGGLE	F	Positive Feedback IR Comp
POSFEEDRESISTANCE	QUANT	0	Positive Feedback Resistance (ohm)
ACHSELECT	IQUANT	0	Ach Select
SENSECABLEID	IQUANT	13	Sense Cable ID
PWRCABLEID	IQUANT	13	Power Cable ID
DCCALDATE	LABEL	6/30/2020	DC Calibration Date
ACCALDATE	LABEL	6/30/2020	AC Calibration Date
THERMOSELECT	IQUANT	1	Thermo Select
FRAMEWORKVERSION	LABEL	7.8.2	Framework Version
INSTRUMENTVERSION	LABEL	4.40	Instrument Version
CURVE	TABLE	101
	Pt	T	Vfwd	Vrev	Vstep	Ifwd	Irev	Idif	Sig	Ach	IERange	Over	Temp
	#	s	V	V	V	A	A	A	V	V	#	bits	deg C
	0	0.1	-3.24885E-001	-3.74880E-001	-3.49882E-001	-9.61113E-008	-1.69444E-007	7.33330E-008	-3.75000E-001	4.07873E-004	6	..........a	-327.68
	1	0.2	-3.22852E-001	-3.72879E-001	-3.47865E-001	-8.26426E-008	-1.62989E-007	8.03466E-008	-3.73000E-001	4.07706E-004	6	..........a	-327.68
	2	0.3	-3.20875E-001	-3.70781E-001	-3.45828E-001	-7.91242E-008	-1.59519E-007	8.03952E-008	-3.71000E-001	4.23039E-004	6	..........a	-327.68
	3	0.4	-3.18883E-001	-3.68931E-001	-3.43907E-001	-7.68409E-008	-1.56709E-007	7.98682E-008	-3.69000E-001	4.24706E-004	6	..........a	-327.68
	4	0.5	-3.16857E-001	-3.66905E-001	-3.41881E-001	-7.48329E-008	-1.53936E-007	7.91034E-008	-3.67000E-001	4.19873E-004	6	..........a	-327.68
	5	0.6	-3.14860E-001	-3.64885E-001	-3.39872E-001	-7.30260E-008	-1.51645E-007	7.86190E-008	-3.65000E-001	4.01539E-004	6	..........a	-327.68
	6	0.7	-3.12891E-001	-3.62808E-001	-3.37849E-001	-7.13345E-008	-1.49060E-007	7.77259E-008	-3.63000E-001	4.03706E-004	6	..........a	-327.68
	7	0.8	-3.10879E-001	-3.60878E-001	-3.35879E-001	-6.96583E-008	-1.46806E-007	7.71475E-008	-3.61000E-001	4.02873E-004	6	..........a	-327.68
	8	0.9	-3.08846E-001	-3.58871E-001	-3.33858E-001	-6.80627E-008	-1.44348E-007	7.62854E-008	-3.59000E-001	4.12373E-004	6	..........a	-327.68
	9	1	-3.06813E-001	-3.56772E-001	-3.31792E-001	-6.63809E-008	-1.42071E-007	7.56906E-008	-3.57000E-001	4.17706E-004	6	..........a	-327.68
	10	1.1	-3.04899E-001	-3.54829E-001	-3.29864E-001	-6.48390E-008	-1.39787E-007	7.49479E-008	-3.55000E-001	4.13873E-004	6	..........a	-327.68
	11	1.2	-3.02899E-001	-3.52885E-001	-3.27892E-001	-6.31675E-008	-1.37703E-007	7.45351E-008	-3.53000E-001	4.08039E-004	6	..........a	-327.68
	12	1.3	-3.00875E-001	-3.50899E-001	-3.25887E-001	-6.14269E-008	-1.35437E-007	7.40104E-008	-3.51000E-001	4.00206E-004	6	..........a	-327.68
	13	1.4	-2.98854E-001	-3.48894E-001	-3.23874E-001	-5.98874E-008	-1.33280E-007	7.33923E-008	-3.49000E-001	3.98873E-004	6	..........a	-327.68
	14	1.5	-2.96875E-001	-3.46877E-001	-3.21876E-001	-5.84902E-008	-1.31153E-007	7.26626E-008	-3.47000E-001	4.09706E-004	6	..........a	-327.68
	15	1.6	-2.94857E-001	-3.44936E-001	-3.19897E-001	-5.69097E-008	-1.29290E-007	7.23805E-008	-3.45000E-001	4.15873E-004	6	..........a	-327.68
	16	1.7	-2.92788E-001	-3.42877E-001	-3.17832E-001	-5.52331E-008	-1.27165E-007	7.19318E-008	-3.43000E-001	4.00206E-004	6	..........a	-327.68
	17	1.8	-2.90792E-001	-3.40910E-001	-3.15851E-001	-5.36372E-008	-1.24926E-007	7.12884E-008	-3.41000E-001	4.14539E-004	6	..........a	-327.68
	18	1.9	-2.88905E-001	-3.38825E-001	-3.13865E-001	-5.23587E-008	-1.23288E-007	7.09294E-008	-3.39000E-001	4.18706E-004	6	..........a	-327.68
	19	2	-2.86861E-001	-3.36888E-001	-3.11875E-001	-5.06322E-008	-1.21591E-007	7.09590E-008	-3.37000E-001	4.19206E-004	6	..........a	-327.68
	20	2.1	-2.84848E-001	-3.34882E-001	-3.09865E-001	-4.93344E-008	-1.19411E-007	7.00766E-008	-3.35000E-001	4.02373E-004	6	..........a	-327.68
	21	2.2	-2.82797E-001	-3.32841E-001	-3.07819E-001	-4.78835E-008	-1.17608E-007	6.97242E-008	-3.33000E-001	4.18539E-004	6	..........a	-327.68
	22	2.3	-2.80901E-001	-3.30812E-001	-3.05857E-001	-4.65320E-008	-1.15960E-007	6.94278E-008	-3.31000E-001	4.20373E-004	6	..........a	-327.68
	23	2.4	-2.78870E-001	-3.28897E-001	-3.03883E-001	-4.49398E-008	-1.14151E-007	6.92108E-008	-3.29000E-001	4.18706E-004	6	..........a	-327.68
	24	2.5	-2.76871E-001	-3.26882E-001	-3.01877E-001	-4.37360E-008	-1.12220E-007	6.84840E-008	-3.27000E-001	4.21539E-004	6	..........a	-327.68
	25	2.6	-2.74837E-001	-3.24889E-001	-2.99863E-001	-4.21548E-008	-1.10739E-007	6.85841E-008	-3.25000E-001	4.12373E-004	6	..........a	-327.68
	26	2.7	-2.72883E-001	-3.22867E-001	-2.97875E-001	-4.10110E-008	-1.08817E-007	6.78063E-008	-3.23000E-001	4.09539E-004	6	..........a	-327.68
	27	2.8	-2.70884E-001	-3.20887E-001	-2.95886E-001	-3.96241E-008	-1.07469E-007	6.78453E-008	-3.21000E-001	4.05539E-004	6	..........a	-327.68
	28	2.9	-2.68888E-001	-3.18891E-001	-2.93889E-001	-3.83143E-008	-1.05511E-007	6.71966E-008	-3.19000E-001	4.07539E-004	6	..........a	-327.68
	29	3	-2.66782E-001	-3.16839E-001	-2.91810E-001	-3.67588E-008	-1.04074E-007	6.73152E-008	-3.17000E-001	4.19206E-004	6	..........a	-327.68
	30	3.1	-2.64900E-001	-3.14882E-001	-2.89891E-001	-3.57060E-008	-1.02569E-007	6.68628E-008	-3.15000E-001	4.20706E-004	6	..........a	-327.68
	31	3.2	-2.62910E-001	-3.12906E-001	-2.87908E-001	-3.42278E-008	-1.01180E-007	6.69519E-008	-3.13000E-001	3.95373E-004	6	..........a	-327.68
	32	3.3	-2.60814E-001	-3.10884E-001	-2.85849E-001	-3.30706E-008	-9.97381E-008	6.66675E-008	-3.11000E-001	3.97873E-004	6	..........a	-327.68
	33	3.4	-2.58814E-001	-3.08863E-001	-2.83838E-001	-3.16544E-008	-9.83843E-008	6.67298E-008	-3.09000E-001	3.99873E-004	6	..........a	-327.68
	34	3.5	-2.56872E-001	-3.06834E-001	-2.81853E-001	-3.04963E-008	-9.71218E-008	6.66255E-008	-3.07000E-001	3.92873E-004	6	..........a	-327.68
	35	3.6	-2.54910E-001	-3.04901E-001	-2.79905E-001	-2.91058E-008	-9.57549E-008	6.66492E-008	-3.05000E-001	4.05873E-004	6	..........a	-327.68
	36	3.7	-2.52872E-001	-3.02916E-001	-2.77894E-001	-2.79663E-008	-9.42221E-008	6.62558E-008	-3.03000E-001	4.14206E-004	6	..........a	-327.68
	37	3.8	-2.50836E-001	-3.00896E-001	-2.75866E-001	-2.68402E-008	-9.29129E-008	6.60727E-008	-3.01000E-001	4.07206E-004	6	..........a	-327.68
	38	3.9	-2.48886E-001	-2.98865E-001	-2.73876E-001	-2.58634E-008	-9.16194E-008	6.57560E-008	-2.99000E-001	3.88706E-004	6	..........a	-327.68
	39	4	-2.46888E-001	-2.96907E-001	-2.71898E-001	-2.47202E-008	-9.03289E-008	6.56087E-008	-2.97000E-001	4.03039E-004	6	..........a	-327.68
	40	4.1	-2.44882E-001	-2.94903E-001	-2.69892E-001	-2.33057E-008	-8.90774E-008	6.57717E-008	-2.95000E-001	3.90373E-004	6	..........a	-327.68
	41	4.2	-2.42778E-001	-2.92767E-001	-2.67772E-001	-2.23896E-008	-8.77929E-008	6.54033E-008	-2.93000E-001	3.99873E-004	6	..........a	-327.68
	42	4.3	-2.40912E-001	-2.90821E-001	-2.65866E-001	-2.13161E-008	-8.66288E-008	6.53126E-008	-2.91000E-001	4.01039E-004	6	..........a	-327.68
	43	4.4	-2.38896E-001	-2.88927E-001	-2.63912E-001	-2.03257E-008	-8.52446E-008	6.49189E-008	-2.89000E-001	3.95706E-004	6	..........a	-327.68
	44	4.5	-2.36869E-001	-2.86890E-001	-2.61880E-001	-1.95822E-008	-8.39758E-008	6.43935E-008	-2.87000E-001	3.98373E-004	6	..........a	-327.68
	45	4.6	-2.34803E-001	-2.84852E-001	-2.59827E-001	-1.87895E-008	-8.27419E-008	6.39525E-008	-2.85000E-001	4.06206E-004	6	..........a	-327.68
	46	4.7	-2.32854E-001	-2.82822E-001	-2.57838E-001	-1.77113E-008	-8.15871E-008	6.38758E-008	-2.83000E-001	3.95539E-004	6	..........a	-327.68
	47	4.8	-2.30866E-001	-2.80919E-001	-2.55893E-001	-1.67339E-008	-8.03560E-008	6.36221E-008	-2.81000E-001	3.96039E-004	6	..........a	-327.68
	48	4.9	-2.28820E-001	-2.78877E-001	-2.53848E-001	-1.58408E-008	-7.91925E-008	6.33517E-008	-2.79000E-001	4.05539E-004	6	..........a	-327.68
	49	5	-2.26817E-001	-2.76880E-001	-2.51848E-001	-1.51197E-008	-7.78830E-008	6.27633E-008	-2.77000E-001	4.12206E-004	6	..........a	-327.68
	50	5.1	-2.24880E-001	-2.74849E-001	-2.49864E-001	-1.43139E-008	-7.67755E-008	6.24616E-008	-2.75000E-001	4.14539E-004	6	..........a	-327.68
	51	5.2	-2.22875E-001	-2.72892E-001	-2.47883E-001	-1.35565E-008	-7.57084E-008	6.21519E-008	-2.73000E-001	4.23373E-004	6	..........a	-327.68
	52	5.3	-2.20871E-001	-2.70874E-001	-2.45872E-001	-1.27074E-008	-7.43179E-008	6.16105E-008	-2.71000E-001	4.21206E-004	6	..........a	-327.68
	53	5.4	-2.18862E-001	-2.68888E-001	-2.43875E-001	-1.19893E-008	-7.32874E-008	6.12981E-008	-2.69000E-001	4.19373E-004	6	..........a	-327.68
	54	5.5	-2.16932E-001	-2.66782E-001	-2.41857E-001	-1.13185E-008	-7.22553E-008	6.09368E-008	-2.67000E-001	4.06373E-004	6	..........a	-327.68
	55	5.6	-2.14887E-001	-2.64925E-001	-2.39906E-001	-1.04144E-008	-7.09941E-008	6.05797E-008	-2.65000E-001	4.19206E-004	6	..........a	-327.68
	56	5.7	-2.12839E-001	-2.62887E-001	-2.37863E-001	-9.64531E-009	-6.97393E-008	6.00940E-008	-2.63000E-001	4.12206E-004	6	..........a	-327.68
	57	5.8	-2.10826E-001	-2.60864E-001	-2.35845E-001	-8.99723E-009	-6.85972E-008	5.95999E-008	-2.61000E-001	4.10039E-004	6	..........a	-327.68
	58	5.9	-2.08872E-001	-2.58824E-001	-2.33848E-001	-8.27914E-009	-6.75277E-008	5.92485E-008	-2.59000E-001	4.20039E-004	6	..........a	-327.68
	59	6	-2.06883E-001	-2.56882E-001	-2.31882E-001	-7.83441E-009	-6.63875E-008	5.85531E-008	-2.57000E-001	4.15706E-004	6	..........a	-327.68
	60	6.1	-2.04837E-001	-2.54899E-001	-2.29868E-001	-6.81028E-009	-6.53334E-008	5.85231E-008	-2.55000E-001	4.03206E-004	6	..........a	-327.68
	61	6.2	-2.02810E-001	-2.52845E-001	-2.27828E-001	-6.39956E-009	-6.39729E-008	5.75733E-008	-2.53000E-001	4.11706E-004	6	..........a	-327.68
	62	6.3	-2.00885E-001	-2.50842E-001	-2.25863E-001	-5.65547E-009	-6.29701E-008	5.73146E-008	-2.51000E-001	4.12539E-004	6	..........a	-327.68
	63	6.4	-1.98892E-001	-2.48888E-001	-2.23890E-001	-5.15707E-009	-6.17309E-008	5.65739E-008	-2.49000E-001	4.09039E-004	6	..........a	-327.68
	64	6.5	-1.96871E-001	-2.46860E-001	-2.21865E-001	-4.25096E-009	-6.08288E-008	5.65779E-008	-2.47000E-001	4.08039E-004	6	..........a	-327.68
	65	6.6	-1.94850E-001	-2.44859E-001	-2.19855E-001	-3.65088E-009	-5.98270E-008	5.61761E-008	-2.45000E-001	3.99539E-004	6	..........a	-327.68
	66	6.7	-1.92895E-001	-2.42777E-001	-2.17836E-001	-3.29484E-009	-5.89199E-008	5.56251E-008	-2.43000E-001	4.05706E-004	6	..........a	-327.68
	67	6.8	-1.90896E-001	-2.40924E-001	-2.15910E-001	-2.50974E-009	-5.75194E-008	5.50097E-008	-2.41000E-001	4.04706E-004	6	..........a	-327.68
	68	6.9	-1.88773E-001	-2.38875E-001	-2.13824E-001	-1.81631E-009	-5.66656E-008	5.48493E-008	-2.39000E-001	3.83206E-004	6	..........a	-327.68
	69	7	-1.86823E-001	-2.36876E-001	-2.11850E-001	-1.35859E-009	-5.57372E-008	5.43786E-008	-2.37000E-001	3.99706E-004	6	..........a	-327.68
	70	7.1	-1.84898E-001	-2.34810E-001	-2.09854E-001	-5.00814E-010	-5.47147E-008	5.42139E-008	-2.35000E-001	3.87373E-004	6	..........a	-327.68
	71	7.2	-1.82862E-001	-2.32857E-001	-2.07860E-001	-1.44185E-011	-5.39629E-008	5.39485E-008	-2.33000E-001	4.09373E-004	6	..........a	-327.68
	72	7.3	-1.80814E-001	-2.30882E-001	-2.05848E-001	4.61975E-010	-5.28428E-008	5.33048E-008	-2.31000E-001	3.97873E-004	6	..........a	-327.68
	73	7.4	-1.78796E-001	-2.28868E-001	-2.03832E-001	9.55705E-010	-5.21304E-008	5.30861E-008	-2.29000E-001	4.05373E-004	6	..........a	-327.68
	74	7.5	-1.76862E-001	-2.26825E-001	-2.01843E-001	1.66446E-009	-5.10299E-008	5.26944E-008	-2.27000E-001	4.12206E-004	6	..........a	-327.68
	75	7.6	-1.74878E-001	-2.24884E-001	-1.99881E-001	2.38522E-009	-5.03638E-008	5.27490E-008	-2.25000E-001	3.89373E-004	6	..........a	-327.68
	76	7.7	-1.72858E-001	-2.22873E-001	-1.97866E-001	2.80427E-009	-4.95581E-008	5.23623E-008	-2.23000E-001	3.94539E-004	6	..........a	-327.68
	77	7.8	-1.70842E-001	-2.20880E-001	-1.95861E-001	3.27800E-009	-4.86166E-008	5.18946E-008	-2.21000E-001	3.95706E-004	6	..........a	-327.68
	78	7.9	-1.68887E-001	-2.18868E-001	-1.93877E-001	3.80407E-009	-4.80192E-008	5.18233E-008	-2.19000E-001	3.91873E-004	6	..........a	-327.68
	79	8	-1.66890E-001	-2.16940E-001	-1.91915E-001	4.39681E-009	-4.70584E-008	5.14552E-008	-2.17000E-001	3.90539E-004	6	..........a	-327.68
	80	8.1	-1.64752E-001	-2.14873E-001	-1.89813E-001	4.66618E-009	-4.61720E-008	5.08381E-008	-2.15000E-001	3.82539E-004	6	..........a	-327.68
	81	8.2	-1.62786E-001	-2.12897E-001	-1.87842E-001	5.25792E-009	-4.53622E-008	5.06201E-008	-2.13000E-001	3.85039E-004	6	..........a	-327.68
	82	8.3	-1.60913E-001	-2.10846E-001	-1.85880E-001	5.77765E-009	-4.48665E-008	5.06441E-008	-2.11000E-001	4.04706E-004	6	..........a	-327.68
	83	8.4	-1.58881E-001	-2.08883E-001	-1.83882E-001	6.51941E-009	-4.39970E-008	5.05164E-008	-2.09000E-001	3.95373E-004	6	..........a	-327.68
	84	8.5	-1.56803E-001	-2.06873E-001	-1.81838E-001	7.01381E-009	-4.32886E-008	5.03024E-008	-2.07000E-001	3.88873E-004	6	..........a	-327.68
	85	8.6	-1.54795E-001	-2.04853E-001	-1.79824E-001	7.36085E-009	-4.26152E-008	4.99760E-008	-2.05000E-001	3.87206E-004	6	..........a	-327.68
	86	8.7	-1.52898E-001	-2.02816E-001	-1.77857E-001	7.70190E-009	-4.19714E-008	4.96733E-008	-2.03000E-001	3.93039E-004	6	..........a	-327.68
	87	8.8	-1.50894E-001	-2.00895E-001	-1.75894E-001	8.38032E-009	-4.11930E-008	4.95733E-008	-2.01000E-001	3.90373E-004	6	..........a	-327.68
	88	8.9	-1.48842E-001	-1.98890E-001	-1.73866E-001	9.13608E-009	-4.07796E-008	4.99157E-008	-1.99000E-001	3.89039E-004	6	..........a	-327.68
	89	9	-1.46824E-001	-1.96861E-001	-1.71843E-001	9.43145E-009	-4.01372E-008	4.95686E-008	-1.97000E-001	3.83706E-004	6	..........a	-327.68
	90	9.1	-1.44873E-001	-1.94856E-001	-1.69865E-001	9.87851E-009	-3.93844E-008	4.92629E-008	-1.95000E-001	3.79706E-004	6	..........a	-327.68
	91	9.2	-1.42902E-001	-1.92881E-001	-1.67891E-001	1.03909E-008	-3.85350E-008	4.89259E-008	-1.93000E-001	3.73039E-004	6	..........a	-327.68
	92	9.3	-1.40861E-001	-1.90891E-001	-1.65876E-001	1.06896E-008	-3.79916E-008	4.86812E-008	-1.91000E-001	3.86039E-004	6	..........a	-327.68
	93	9.4	-1.38759E-001	-1.88719E-001	-1.63739E-001	1.11397E-008	-3.74999E-008	4.86395E-008	-1.89000E-001	3.79039E-004	6	..........a	-327.68
	94	9.5	-1.36874E-001	-1.86815E-001	-1.61844E-001	1.17824E-008	-3.69208E-008	4.87032E-008	-1.87000E-001	3.75873E-004	6	..........a	-327.68
	95	9.6	-1.34910E-001	-1.84901E-001	-1.59905E-001	1.22128E-008	-3.62787E-008	4.84915E-008	-1.85000E-001	3.78706E-004	6	..........a	-327.68
	96	9.7	-1.32785E-001	-1.82872E-001	-1.57828E-001	1.26339E-008	-3.55749E-008	4.82088E-008	-1.83000E-001	3.91706E-004	6	..........a	-327.68
	97	9.8	-1.30794E-001	-1.80799E-001	-1.55797E-001	1.29292E-008	-3.52792E-008	4.82085E-008	-1.81000E-001	3.68706E-004	6	..........a	-327.68
	98	9.9	-1.28838E-001	-1.78805E-001	-1.53822E-001	1.35046E-008	-3.47955E-008	4.83001E-008	-1.79000E-001	3.87539E-004	6	..........a	-327.68
	99	10	-1.26894E-001	-1.76855E-001	-1.51875E-001	1.38910E-008	-3.43038E-008	4.81948E-008	-1.77000E-001	3.93539E-004	6	..........a	-327.68
	100	10.1	-1.24797E-001	-1.74879E-001	-1.49838E-001	1.42577E-008	-3.36150E-008	4.78728E-008	-1.75000E-001	3.78539E-004	6	..........a	-327.68
