EXPLAIN
TAG	SQUARE_WAVE
TITLE	LABEL	Square Wave Voltammetry	Test Identifier
DATE	LABEL	8/10/2020	Date
TIME	LABEL	17:57:43	Time
NOTES	NOTES	1	Notes...
	
PSTAT	PSTAT	REF600-24079	Potentiostat
VINIT	QUANT	-3.50000E-001	Initial E (V)
VFINAL	QUANT	-1.50000E-001	Final E (V)
STEPSIZE	QUANT	2.00000E+000	Step Size (mV)
TIMERRES	QUANT	3.33340E-005	&Timer Resolution
FREQUENCY	QUANT	2.50000E+001	Frequency (Hz)
PULSESIZE	QUANT	2.50000E+001	Pulse Size E (mV)
PULSEON	QUANT	4.00000E-002	Pulse &Time (s)
NOISEREJECT	TOGGLE	F	Noise Rejection
AREA	QUANT	2.00000E-002	Sample Area (cm^2)
IMODE	SELECTOR	1	I/E Range Mode
IRANGE	QUANT	1.00000E-003	Max Current (mA)
EQDELAY	IQUANT	10	Equil. Time (s)
IRCOMP	SELECTOR	0	IRComp
PFCOR	QUANT	5.00000E+001	PF Corr. (ohm)
CYCLES	IQUANT	101	C&ycles (#)
ELECTRODETYPE	SELECTOR	0	Electrode Type
STRIPPING	TOGGLE	F	Used for Stripping
POLARITY	TOGGLE	F	Signal Polarity
LINEFREQ	IQUANT	60	Line Frequency (Hz)
INTPERIOD	QUANT	3.3334E-005	Integration Period (s)
SEQUENCER	TOGGLE	TRUE	Run as Sequence
PSTATMODEL	IQUANT	4	Pstat Model
PSTATSECTION	LABEL	REF600-24079	Pstat Section
PSTATSERIALNO	LABEL	24079	Pstat Serial Number
CTRLMODE	IQUANT	1	Control Mode
ELECTROMETER	IQUANT	0	RE=0 or CS=1
IESTAB	IQUANT	2	I/E Stability
CASPEED	IQUANT	6	Control Amp Speed
CONVENTION	IQUANT	1	Current Convention
ICHRANGE	IQUANT	2	Ich Range
ICHRANGEMODE	TOGGLE	F	Ich Auto Range
ICHOFFSETENABLE	TOGGLE	F	Ich Offset Enable
ICHOFFSET	QUANT	0	Ich Offset (V)
ICHFILTER	IQUANT	2	Ich Filter
VCHRANGE	IQUANT	2	Vch Range
VCHRANGEMODE	TOGGLE	F	Vch Auto Range
VCHOFFSETENABLE	TOGGLE	F	Vch Offset Enable
VCHOFFSET	QUANT	0	Vch Offset (V)
VCHFILTER	IQUANT	2	Vch Filter
ACHRANGE	IQUANT	2	Ach Range
ACHOFFSETENABLE	TOGGLE	F	Ach Offset Enable
ACHOFFSET	QUANT	0	Ach Offset (V)
ACHFILTER	IQUANT	1	Ach Filter
IERANGELOWERLIMIT	IQUANT	1	I/E Range Lower Limit
IERANGEMODE	TOGGLE	F	I/E AutoRange
IERANGE	IQUANT	6	I/E Range
POSFEEDENABLE	TOGGLE	F	Positive Feedback IR Comp
POSFEEDRESISTANCE	QUANT	0	Positive Feedback Resistance (ohm)
ACHSELECT	IQUANT	0	Ach Select
SENSECABLEID	IQUANT	13	Sense Cable ID
PWRCABLEID	IQUANT	13	Power Cable ID
DCCALDATE	LABEL	6/30/2020	DC Calibration Date
ACCALDATE	LABEL	6/30/2020	AC Calibration Date
THERMOSELECT	IQUANT	1	Thermo Select
FRAMEWORKVERSION	LABEL	7.8.2	Framework Version
INSTRUMENTVERSION	LABEL	4.40	Instrument Version
CURVE	TABLE	101
	Pt	T	Vfwd	Vrev	Vstep	Ifwd	Irev	Idif	Sig	Ach	IERange	Over	Temp
	#	s	V	V	V	A	A	A	V	V	#	bits	deg C
	0	0.04	-3.24881E-001	-3.75543E-001	-3.50212E-001	-8.37776E-008	-2.75539E-007	1.91761E-007	-3.75000E-001	3.78123E-004	6	..........a	-327.68
	1	0.08	-3.22212E-001	-3.73567E-001	-3.47889E-001	2.36894E-008	-2.60559E-007	2.84249E-007	-3.73000E-001	3.84373E-004	6	..........a	-327.68
	2	0.12	-3.20205E-001	-3.71551E-001	-3.45878E-001	3.02736E-008	-2.55450E-007	2.85724E-007	-3.71000E-001	3.83539E-004	6	..........a	-327.68
	3	0.16	-3.18089E-001	-3.69440E-001	-3.43764E-001	3.30390E-008	-2.50390E-007	2.83429E-007	-3.69000E-001	3.82706E-004	6	..........a	-327.68
	4	0.2	-3.16224E-001	-3.67558E-001	-3.41891E-001	3.70911E-008	-2.46002E-007	2.83093E-007	-3.67000E-001	3.85206E-004	6	..........a	-327.68
	5	0.24	-3.14235E-001	-3.65595E-001	-3.39915E-001	3.84738E-008	-2.43275E-007	2.81748E-007	-3.65000E-001	3.71456E-004	6	..........a	-327.68
	6	0.28	-3.12187E-001	-3.63561E-001	-3.37874E-001	4.01624E-008	-2.38798E-007	2.78960E-007	-3.63000E-001	3.95623E-004	6	..........a	-327.68
	7	0.32	-3.10138E-001	-3.61517E-001	-3.35827E-001	4.25760E-008	-2.36220E-007	2.78796E-007	-3.61000E-001	3.79373E-004	6	..........a	-327.68
	8	0.36	-3.08201E-001	-3.59538E-001	-3.33870E-001	4.36578E-008	-2.33327E-007	2.76984E-007	-3.59000E-001	3.66456E-004	6	..........a	-327.68
	9	0.4	-3.06235E-001	-3.57592E-001	-3.31914E-001	4.63906E-008	-2.29734E-007	2.76125E-007	-3.57000E-001	3.78539E-004	6	..........a	-327.68
	10	0.44	-3.04218E-001	-3.55576E-001	-3.29897E-001	4.69974E-008	-2.27938E-007	2.74935E-007	-3.55000E-001	3.68539E-004	6	..........a	-327.68
	11	0.48	-3.02169E-001	-3.53517E-001	-3.27843E-001	4.86118E-008	-2.23725E-007	2.72337E-007	-3.53000E-001	3.72706E-004	6	..........a	-327.68
	12	0.52	-3.00208E-001	-3.51556E-001	-3.25882E-001	5.11504E-008	-2.22128E-007	2.73278E-007	-3.51000E-001	3.93539E-004	6	..........a	-327.68
	13	0.56	-2.98212E-001	-3.49553E-001	-3.23882E-001	5.15613E-008	-2.19219E-007	2.70780E-007	-3.49000E-001	3.74373E-004	6	..........a	-327.68
	14	0.6	-2.96223E-001	-3.47569E-001	-3.21896E-001	5.44275E-008	-2.16642E-007	2.71069E-007	-3.47000E-001	3.72706E-004	6	..........a	-327.68
	15	0.64	-2.94143E-001	-3.45520E-001	-3.19832E-001	5.52168E-008	-2.14167E-007	2.69384E-007	-3.45000E-001	3.68123E-004	6	..........a	-327.68
	16	0.68	-2.92232E-001	-3.43538E-001	-3.17885E-001	5.66970E-008	-2.11165E-007	2.67862E-007	-3.43000E-001	3.87706E-004	6	..........a	-327.68
	17	0.72	-2.90253E-001	-3.41586E-001	-3.15920E-001	5.87814E-008	-2.09700E-007	2.68482E-007	-3.41000E-001	3.89373E-004	6	..........a	-327.68
	18	0.76	-2.88232E-001	-3.39582E-001	-3.13907E-001	5.96257E-008	-2.07057E-007	2.66683E-007	-3.39000E-001	3.69789E-004	6	..........a	-327.68
	19	0.8	-2.86131E-001	-3.37485E-001	-3.11808E-001	6.18918E-008	-2.04325E-007	2.66217E-007	-3.37000E-001	3.74373E-004	6	..........a	-327.68
	20	0.84	-2.84204E-001	-3.35538E-001	-3.09871E-001	6.27911E-008	-2.02939E-007	2.65730E-007	-3.35000E-001	3.92289E-004	6	..........a	-327.68
	21	0.88	-2.82212E-001	-3.33551E-001	-3.07882E-001	6.38662E-008	-1.99787E-007	2.63654E-007	-3.33000E-001	3.87706E-004	6	..........a	-327.68
	22	0.92	-2.80219E-001	-3.31573E-001	-3.05896E-001	6.53072E-008	-1.98023E-007	2.63330E-007	-3.31000E-001	3.76873E-004	6	..........a	-327.68
	23	0.96	-2.78150E-001	-3.29508E-001	-3.03829E-001	6.68791E-008	-1.95814E-007	2.62693E-007	-3.29000E-001	3.72289E-004	6	..........a	-327.68
	24	1	-2.76204E-001	-3.27551E-001	-3.01877E-001	6.95619E-008	-1.94090E-007	2.63652E-007	-3.27000E-001	3.83956E-004	6	..........a	-327.68
	25	1.04	-2.74221E-001	-3.25564E-001	-2.99892E-001	7.02103E-008	-1.92694E-007	2.62904E-007	-3.25000E-001	3.67706E-004	6	..........a	-327.68
	26	1.08	-2.72226E-001	-3.23568E-001	-2.97897E-001	7.15880E-008	-1.89484E-007	2.61072E-007	-3.23000E-001	3.90206E-004	6	..........a	-327.68
	27	1.12	-2.70189E-001	-3.21542E-001	-2.95866E-001	7.31024E-008	-1.88218E-007	2.61321E-007	-3.21000E-001	3.63956E-004	6	..........a	-327.68
	28	1.16	-2.68244E-001	-3.19539E-001	-2.93891E-001	7.38833E-008	-1.86710E-007	2.60593E-007	-3.19000E-001	3.76456E-004	6	..........a	-327.68
	29	1.2	-2.66236E-001	-3.17598E-001	-2.91917E-001	7.63636E-008	-1.84639E-007	2.61002E-007	-3.17000E-001	3.79789E-004	6	..........a	-327.68
	30	1.24	-2.64224E-001	-3.15584E-001	-2.89904E-001	7.72504E-008	-1.83967E-007	2.61217E-007	-3.15000E-001	3.73956E-004	6	..........a	-327.68
	31	1.28	-2.62188E-001	-3.13533E-001	-2.87861E-001	7.85231E-008	-1.80810E-007	2.59333E-007	-3.13000E-001	3.91456E-004	6	..........a	-327.68
	32	1.32	-2.60228E-001	-3.11556E-001	-2.85892E-001	8.00124E-008	-1.79912E-007	2.59925E-007	-3.11000E-001	3.72289E-004	6	..........a	-327.68
	33	1.36	-2.58233E-001	-3.09572E-001	-2.83902E-001	8.11009E-008	-1.78161E-007	2.59262E-007	-3.09000E-001	3.75206E-004	6	..........a	-327.68
	34	1.4	-2.56222E-001	-3.07553E-001	-2.81887E-001	8.35621E-008	-1.76161E-007	2.59723E-007	-3.07000E-001	3.96039E-004	6	..........a	-327.68
	35	1.44	-2.54133E-001	-3.05511E-001	-2.79822E-001	8.39163E-008	-1.75571E-007	2.59487E-007	-3.05000E-001	3.76456E-004	6	..........a	-327.68
	36	1.48	-2.52231E-001	-3.03553E-001	-2.77892E-001	8.52939E-008	-1.73438E-007	2.58732E-007	-3.03000E-001	3.65623E-004	6	..........a	-327.68
	37	1.52	-2.50232E-001	-3.01576E-001	-2.75904E-001	8.67816E-008	-1.72888E-007	2.59670E-007	-3.01000E-001	3.84789E-004	6	..........a	-327.68
	38	1.56	-2.48218E-001	-2.99565E-001	-2.73892E-001	8.70867E-008	-1.70899E-007	2.57985E-007	-2.99000E-001	3.81873E-004	6	..........a	-327.68
	39	1.6	-2.46185E-001	-2.97548E-001	-2.71867E-001	8.98629E-008	-1.69524E-007	2.59387E-007	-2.97000E-001	3.96873E-004	6	..........a	-327.68
	40	1.64	-2.44215E-001	-2.95548E-001	-2.69881E-001	8.96978E-008	-1.68730E-007	2.58428E-007	-2.95000E-001	3.71456E-004	6	..........a	-327.68
	41	1.68	-2.42270E-001	-2.93612E-001	-2.67941E-001	9.10397E-008	-1.66411E-007	2.57451E-007	-2.93000E-001	3.83539E-004	6	..........a	-327.68
	42	1.72	-2.40226E-001	-2.91564E-001	-2.65895E-001	9.17789E-008	-1.65460E-007	2.57239E-007	-2.91000E-001	3.80206E-004	6	..........a	-327.68
	43	1.76	-2.38168E-001	-2.89521E-001	-2.63845E-001	9.20773E-008	-1.64064E-007	2.56142E-007	-2.89000E-001	3.67706E-004	6	..........a	-327.68
	44	1.8	-2.36243E-001	-2.87571E-001	-2.61907E-001	9.43409E-008	-1.62563E-007	2.56904E-007	-2.87000E-001	3.86456E-004	6	..........a	-327.68
	45	1.84	-2.34222E-001	-2.85558E-001	-2.59890E-001	9.41567E-008	-1.61944E-007	2.56101E-007	-2.85000E-001	3.70623E-004	6	..........a	-327.68
	46	1.88	-2.32201E-001	-2.83573E-001	-2.57887E-001	9.54277E-008	-1.59716E-007	2.55144E-007	-2.83000E-001	3.91039E-004	6	..........a	-327.68
	47	1.92	-2.30156E-001	-2.81511E-001	-2.55834E-001	9.57203E-008	-1.59451E-007	2.55171E-007	-2.81000E-001	3.84373E-004	6	..........a	-327.68
	48	1.96	-2.28227E-001	-2.79538E-001	-2.53882E-001	9.58253E-008	-1.58010E-007	2.53836E-007	-2.79000E-001	4.05623E-004	6	..........a	-327.68
	49	2	-2.26228E-001	-2.77571E-001	-2.51899E-001	9.76730E-008	-1.56627E-007	2.54300E-007	-2.77000E-001	3.97289E-004	6	..........a	-327.68
	50	2.04	-2.24239E-001	-2.75578E-001	-2.49909E-001	9.73571E-008	-1.56058E-007	2.53415E-007	-2.75000E-001	3.68956E-004	6	..........a	-327.68
	51	2.08	-2.22178E-001	-2.73527E-001	-2.47853E-001	9.83439E-008	-1.53926E-007	2.52270E-007	-2.73000E-001	3.85623E-004	6	..........a	-327.68
	52	2.12	-2.20226E-001	-2.71547E-001	-2.45886E-001	9.92157E-008	-1.52807E-007	2.52023E-007	-2.71000E-001	3.66873E-004	6	..........a	-327.68
	53	2.16	-2.18234E-001	-2.69566E-001	-2.43900E-001	9.86398E-008	-1.52441E-007	2.51081E-007	-2.69000E-001	3.66039E-004	6	..........a	-327.68
	54	2.2	-2.16164E-001	-2.67568E-001	-2.41866E-001	1.00072E-007	-1.50412E-007	2.50484E-007	-2.67000E-001	3.73123E-004	6	..........a	-327.68
	55	2.24	-2.14175E-001	-2.65559E-001	-2.39867E-001	9.98183E-008	-1.49375E-007	2.49193E-007	-2.65000E-001	3.58539E-004	6	..........a	-327.68
	56	2.28	-2.12247E-001	-2.63576E-001	-2.37911E-001	1.00027E-007	-1.47525E-007	2.47552E-007	-2.63000E-001	3.81873E-004	6	..........a	-327.68
	57	2.32	-2.10251E-001	-2.61589E-001	-2.35920E-001	1.01266E-007	-1.47206E-007	2.48472E-007	-2.61000E-001	3.68539E-004	6	..........a	-327.68
	58	2.36	-2.08231E-001	-2.59567E-001	-2.33899E-001	1.00985E-007	-1.45519E-007	2.46504E-007	-2.59000E-001	3.70623E-004	6	..........a	-327.68
	59	2.4	-2.06149E-001	-2.57497E-001	-2.31823E-001	1.02269E-007	-1.44246E-007	2.46516E-007	-2.57000E-001	3.95206E-004	6	..........a	-327.68
	60	2.44	-2.04243E-001	-2.55560E-001	-2.29901E-001	1.01329E-007	-1.43979E-007	2.45308E-007	-2.55000E-001	3.76039E-004	6	..........a	-327.68
	61	2.48	-2.02235E-001	-2.53586E-001	-2.27911E-001	1.02215E-007	-1.41352E-007	2.43567E-007	-2.53000E-001	3.81456E-004	6	..........a	-327.68
	62	2.52	-2.00235E-001	-2.51572E-001	-2.25903E-001	1.02705E-007	-1.41213E-007	2.43919E-007	-2.51000E-001	3.61456E-004	6	..........a	-327.68
	63	2.56	-1.98183E-001	-2.49539E-001	-2.23861E-001	1.02405E-007	-1.39534E-007	2.41939E-007	-2.49000E-001	3.72289E-004	6	..........a	-327.68
	64	2.6	-1.96220E-001	-2.47547E-001	-2.21883E-001	1.03817E-007	-1.38728E-007	2.42545E-007	-2.47000E-001	3.79789E-004	6	..........a	-327.68
	65	2.64	-1.94229E-001	-2.45538E-001	-2.19883E-001	1.02815E-007	-1.38023E-007	2.40837E-007	-2.45000E-001	3.75206E-004	6	..........a	-327.68
	66	2.68	-1.92243E-001	-2.43541E-001	-2.17892E-001	1.03720E-007	-1.35824E-007	2.39545E-007	-2.43000E-001	3.90206E-004	6	..........a	-327.68
	67	2.72	-1.90105E-001	-2.41431E-001	-2.15768E-001	1.03850E-007	-1.35651E-007	2.39500E-007	-2.41000E-001	3.74789E-004	6	..........a	-327.68
	68	2.76	-1.88247E-001	-2.39548E-001	-2.13897E-001	1.03864E-007	-1.34621E-007	2.38485E-007	-2.39000E-001	3.71873E-004	6	..........a	-327.68
	69	2.8	-1.86253E-001	-2.37580E-001	-2.11916E-001	1.05311E-007	-1.33143E-007	2.38454E-007	-2.37000E-001	3.80206E-004	6	..........a	-327.68
	70	2.84	-1.84186E-001	-2.35557E-001	-2.09872E-001	1.04482E-007	-1.32763E-007	2.37245E-007	-2.35000E-001	3.68123E-004	6	..........a	-327.68
	71	2.88	-1.82126E-001	-2.33511E-001	-2.07818E-001	1.05331E-007	-1.30333E-007	2.35665E-007	-2.33000E-001	3.83539E-004	6	..........a	-327.68
	72	2.92	-1.80181E-001	-2.31531E-001	-2.05856E-001	1.05622E-007	-1.30567E-007	2.36188E-007	-2.31000E-001	3.88539E-004	6	..........a	-327.68
	73	2.96	-1.78236E-001	-2.29585E-001	-2.03910E-001	1.05056E-007	-1.28971E-007	2.34027E-007	-2.29000E-001	3.64373E-004	6	..........a	-327.68
	74	3	-1.76221E-001	-2.27569E-001	-2.01895E-001	1.06752E-007	-1.28070E-007	2.34822E-007	-2.27000E-001	3.76873E-004	6	..........a	-327.68
	75	3.04	-1.74140E-001	-2.25513E-001	-1.99826E-001	1.06403E-007	-1.28031E-007	2.34434E-007	-2.25000E-001	3.75623E-004	6	..........a	-327.68
	76	3.08	-1.72215E-001	-2.23551E-001	-1.97883E-001	1.07276E-007	-1.25885E-007	2.33161E-007	-2.23000E-001	3.83123E-004	6	..........a	-327.68
	77	3.12	-1.70217E-001	-2.21551E-001	-1.95884E-001	1.07141E-007	-1.26056E-007	2.33197E-007	-2.21000E-001	3.65206E-004	6	..........a	-327.68
	78	3.16	-1.68205E-001	-2.19554E-001	-1.93880E-001	1.07088E-007	-1.24796E-007	2.31884E-007	-2.19000E-001	3.64373E-004	6	..........a	-327.68
	79	3.2	-1.66118E-001	-2.17529E-001	-1.91823E-001	1.08539E-007	-1.23850E-007	2.32390E-007	-2.17000E-001	3.53539E-004	6	..........a	-327.68
	80	3.24	-1.64215E-001	-2.15522E-001	-1.89869E-001	1.08025E-007	-1.23205E-007	2.31230E-007	-2.15000E-001	3.61873E-004	6	..........a	-327.68
	81	3.28	-1.62257E-001	-2.13582E-001	-1.87920E-001	1.08967E-007	-1.21753E-007	2.30720E-007	-2.13000E-001	3.76456E-004	6	..........a	-327.68
	82	3.32	-1.60219E-001	-2.11562E-001	-1.85891E-001	1.08841E-007	-1.21952E-007	2.30794E-007	-2.11000E-001	3.61039E-004	6	..........a	-327.68
	83	3.36	-1.58143E-001	-2.09487E-001	-1.83815E-001	1.08526E-007	-1.20605E-007	2.29131E-007	-2.09000E-001	3.85623E-004	6	..........a	-327.68
	84	3.4	-1.56197E-001	-2.07547E-001	-1.81872E-001	1.10871E-007	-1.19930E-007	2.30801E-007	-2.07000E-001	3.96456E-004	6	..........a	-327.68
	85	3.44	-1.54209E-001	-2.05551E-001	-1.79880E-001	1.10099E-007	-1.19855E-007	2.29954E-007	-2.05000E-001	3.62706E-004	6	..........a	-327.68
	86	3.48	-1.52211E-001	-2.03580E-001	-1.77896E-001	1.10538E-007	-1.17978E-007	2.28516E-007	-2.03000E-001	3.70623E-004	6	..........a	-327.68
	87	3.52	-1.50147E-001	-2.01525E-001	-1.75836E-001	1.11351E-007	-1.18181E-007	2.29533E-007	-2.01000E-001	3.77289E-004	6	..........a	-327.68
	88	3.56	-1.48209E-001	-1.99548E-001	-1.73879E-001	1.11275E-007	-1.16987E-007	2.28262E-007	-1.99000E-001	3.71456E-004	6	..........a	-327.68
	89	3.6	-1.46209E-001	-1.97565E-001	-1.71887E-001	1.12853E-007	-1.16560E-007	2.29413E-007	-1.97000E-001	3.76039E-004	6	..........a	-327.68
	90	3.64	-1.44218E-001	-1.95565E-001	-1.69891E-001	1.12381E-007	-1.16089E-007	2.28470E-007	-1.95000E-001	3.63956E-004	6	..........a	-327.68
	91	3.68	-1.42185E-001	-1.93542E-001	-1.67864E-001	1.13353E-007	-1.14969E-007	2.28322E-007	-1.93000E-001	3.81456E-004	6	..........a	-327.68
	92	3.72	-1.40236E-001	-1.91524E-001	-1.65880E-001	1.13380E-007	-1.15249E-007	2.28629E-007	-1.91000E-001	3.68956E-004	6	..........a	-327.68
	93	3.76	-1.38227E-001	-1.89600E-001	-1.63914E-001	1.13568E-007	-1.14069E-007	2.27636E-007	-1.89000E-001	3.69789E-004	6	..........a	-327.68
	94	3.8	-1.36205E-001	-1.87571E-001	-1.61888E-001	1.14718E-007	-1.13703E-007	2.28421E-007	-1.87000E-001	3.58956E-004	6	..........a	-327.68
	95	3.84	-1.34159E-001	-1.85546E-001	-1.59853E-001	1.14513E-007	-1.13581E-007	2.28094E-007	-1.85000E-001	3.53956E-004	6	..........a	-327.68
	96	3.88	-1.32205E-001	-1.83516E-001	-1.57861E-001	1.15774E-007	-1.12376E-007	2.28150E-007	-1.83000E-001	3.82706E-004	6	..........a	-327.68
	97	3.92	-1.30207E-001	-1.81553E-001	-1.55880E-001	1.16129E-007	-1.12100E-007	2.28229E-007	-1.81000E-001	3.68956E-004	6	..........a	-327.68
	98	3.96	-1.28192E-001	-1.79546E-001	-1.53869E-001	1.16013E-007	-1.11741E-007	2.27754E-007	-1.79000E-001	3.66039E-004	6	..........a	-327.68
	99	4	-1.26134E-001	-1.77479E-001	-1.51807E-001	1.17679E-007	-1.11456E-007	2.29135E-007	-1.77000E-001	3.63956E-004	6	..........a	-327.68
	100	4.04	-1.24191E-001	-1.75531E-001	-1.49861E-001	1.17579E-007	-1.11535E-007	2.29114E-007	-1.75000E-001	3.53956E-004	6	..........a	-327.68
