EXPLAIN
TAG	SQUARE_WAVE
TITLE	LABEL	Square Wave Voltammetry	Test Identifier
DATE	LABEL	8/10/2020	Date
TIME	LABEL	15:21:10	Time
NOTES	NOTES	1	Notes...
	 STD3 0.1 fg/mL 08102
PSTAT	PSTAT	REF600-24079	Potentiostat
VINIT	QUANT	-3.50000E-001	Initial E (V)
VFINAL	QUANT	-1.50000E-001	Final E (V)
STEPSIZE	QUANT	2.00000E+000	Step Size (mV)
TIMERRES	QUANT	3.33340E-005	&Timer Resolution
FREQUENCY	QUANT	1.00000E+001	Frequency (Hz)
PULSESIZE	QUANT	2.50000E+001	Pulse Size E (mV)
PULSEON	QUANT	1.00000E-001	Pulse &Time (s)
NOISEREJECT	TOGGLE	F	Noise Rejection
AREA	QUANT	2.00000E-002	Sample Area (cm^2)
IMODE	SELECTOR	1	I/E Range Mode
IRANGE	QUANT	1.00000E-003	Max Current (mA)
EQDELAY	IQUANT	10	Equil. Time (s)
IRCOMP	SELECTOR	0	IRComp
PFCOR	QUANT	5.00000E+001	PF Corr. (ohm)
CYCLES	IQUANT	101	C&ycles (#)
ELECTRODETYPE	SELECTOR	0	Electrode Type
STRIPPING	TOGGLE	F	Used for Stripping
POLARITY	TOGGLE	F	Signal Polarity
LINEFREQ	IQUANT	60	Line Frequency (Hz)
INTPERIOD	QUANT	3.3334E-005	Integration Period (s)
SEQUENCER	TOGGLE	TRUE	Run as Sequence
PSTATMODEL	IQUANT	4	Pstat Model
PSTATSECTION	LABEL	REF600-24079	Pstat Section
PSTATSERIALNO	LABEL	24079	Pstat Serial Number
CTRLMODE	IQUANT	1	Control Mode
ELECTROMETER	IQUANT	0	RE=0 or CS=1
IESTAB	IQUANT	2	I/E Stability
CASPEED	IQUANT	6	Control Amp Speed
CONVENTION	IQUANT	1	Current Convention
ICHRANGE	IQUANT	2	Ich Range
ICHRANGEMODE	TOGGLE	F	Ich Auto Range
ICHOFFSETENABLE	TOGGLE	F	Ich Offset Enable
ICHOFFSET	QUANT	0	Ich Offset (V)
ICHFILTER	IQUANT	2	Ich Filter
VCHRANGE	IQUANT	2	Vch Range
VCHRANGEMODE	TOGGLE	F	Vch Auto Range
VCHOFFSETENABLE	TOGGLE	F	Vch Offset Enable
VCHOFFSET	QUANT	0	Vch Offset (V)
VCHFILTER	IQUANT	2	Vch Filter
ACHRANGE	IQUANT	2	Ach Range
ACHOFFSETENABLE	TOGGLE	F	Ach Offset Enable
ACHOFFSET	QUANT	0	Ach Offset (V)
ACHFILTER	IQUANT	1	Ach Filter
IERANGELOWERLIMIT	IQUANT	1	I/E Range Lower Limit
IERANGEMODE	TOGGLE	F	I/E AutoRange
IERANGE	IQUANT	6	I/E Range
POSFEEDENABLE	TOGGLE	F	Positive Feedback IR Comp
POSFEEDRESISTANCE	QUANT	0	Positive Feedback Resistance (ohm)
ACHSELECT	IQUANT	0	Ach Select
SENSECABLEID	IQUANT	13	Sense Cable ID
PWRCABLEID	IQUANT	13	Power Cable ID
DCCALDATE	LABEL	6/30/2020	DC Calibration Date
ACCALDATE	LABEL	6/30/2020	AC Calibration Date
THERMOSELECT	IQUANT	1	Thermo Select
FRAMEWORKVERSION	LABEL	7.8.2	Framework Version
INSTRUMENTVERSION	LABEL	4.40	Instrument Version
CURVE	TABLE	101
	Pt	T	Vfwd	Vrev	Vstep	Ifwd	Irev	Idif	Sig	Ach	IERange	Over	Temp
	#	s	V	V	V	A	A	A	V	V	#	bits	deg C
	0	0.1	-3.24864E-001	-3.74880E-001	-3.49872E-001	-5.81845E-008	-1.10947E-007	5.27621E-008	-3.75000E-001	3.78706E-004	6	..........a	-327.68
	1	0.2	-3.22858E-001	-3.72887E-001	-3.47872E-001	-4.48738E-008	-1.05415E-007	6.05410E-008	-3.73000E-001	3.76039E-004	6	..........a	-327.68
	2	0.3	-3.20880E-001	-3.70794E-001	-3.45837E-001	-4.19828E-008	-1.02730E-007	6.07477E-008	-3.71000E-001	3.58539E-004	6	..........a	-327.68
	3	0.4	-3.18929E-001	-3.68932E-001	-3.43930E-001	-4.02525E-008	-1.00996E-007	6.07434E-008	-3.69000E-001	3.55539E-004	6	..........a	-327.68
	4	0.5	-3.16764E-001	-3.66936E-001	-3.41850E-001	-3.89034E-008	-9.90837E-008	6.01803E-008	-3.67000E-001	3.68373E-004	6	..........a	-327.68
	5	0.6	-3.14893E-001	-3.64898E-001	-3.39895E-001	-3.75592E-008	-9.71818E-008	5.96226E-008	-3.65000E-001	3.63373E-004	6	..........a	-327.68
	6	0.7	-3.12912E-001	-3.62830E-001	-3.37871E-001	-3.65601E-008	-9.57706E-008	5.92105E-008	-3.63000E-001	3.74873E-004	6	..........a	-327.68
	7	0.8	-3.10899E-001	-3.60884E-001	-3.35892E-001	-3.51336E-008	-9.45321E-008	5.93986E-008	-3.61000E-001	3.53039E-004	6	..........a	-327.68
	8	0.9	-3.08820E-001	-3.58888E-001	-3.33854E-001	-3.41358E-008	-9.28399E-008	5.87041E-008	-3.59000E-001	3.65373E-004	6	..........a	-327.68
	9	1	-3.06849E-001	-3.56797E-001	-3.31823E-001	-3.31973E-008	-9.15521E-008	5.83548E-008	-3.57000E-001	3.56539E-004	6	..........a	-327.68
	10	1.1	-3.04890E-001	-3.54836E-001	-3.29863E-001	-3.22322E-008	-9.01155E-008	5.78834E-008	-3.55000E-001	3.73206E-004	6	..........a	-327.68
	11	1.2	-3.02899E-001	-3.52889E-001	-3.27894E-001	-3.11821E-008	-8.88694E-008	5.76873E-008	-3.53000E-001	3.63706E-004	6	..........a	-327.68
	12	1.3	-3.00880E-001	-3.50883E-001	-3.25881E-001	-3.03453E-008	-8.76162E-008	5.72709E-008	-3.51000E-001	3.69206E-004	6	..........a	-327.68
	13	1.4	-2.98854E-001	-3.48877E-001	-3.23866E-001	-2.93692E-008	-8.63464E-008	5.69772E-008	-3.49000E-001	3.65373E-004	6	..........a	-327.68
	14	1.5	-2.96889E-001	-3.46882E-001	-3.21885E-001	-2.81203E-008	-8.52486E-008	5.71283E-008	-3.47000E-001	3.61539E-004	6	..........a	-327.68
	15	1.6	-2.94873E-001	-3.44913E-001	-3.19893E-001	-2.73539E-008	-8.38024E-008	5.64485E-008	-3.45000E-001	3.76206E-004	6	..........a	-327.68
	16	1.7	-2.92767E-001	-3.42918E-001	-3.17842E-001	-2.63328E-008	-8.28110E-008	5.64782E-008	-3.43000E-001	3.72039E-004	6	..........a	-327.68
	17	1.8	-2.90821E-001	-3.40909E-001	-3.15865E-001	-2.52926E-008	-8.15615E-008	5.62688E-008	-3.41000E-001	3.63706E-004	6	..........a	-327.68
	18	1.9	-2.88922E-001	-3.38861E-001	-3.13891E-001	-2.46225E-008	-8.04830E-008	5.58604E-008	-3.39000E-001	3.77539E-004	6	..........a	-327.68
	19	2	-2.86896E-001	-3.36880E-001	-3.11888E-001	-2.33957E-008	-7.94152E-008	5.60195E-008	-3.37000E-001	3.81539E-004	6	..........a	-327.68
	20	2.1	-2.84814E-001	-3.34884E-001	-3.09849E-001	-2.25543E-008	-7.84424E-008	5.58881E-008	-3.35000E-001	3.74873E-004	6	..........a	-327.68
	21	2.2	-2.82816E-001	-3.32854E-001	-3.07835E-001	-2.17145E-008	-7.71099E-008	5.53954E-008	-3.33000E-001	3.85039E-004	6	..........a	-327.68
	22	2.3	-2.80918E-001	-3.30826E-001	-3.05872E-001	-2.06937E-008	-7.63155E-008	5.56217E-008	-3.31000E-001	3.79873E-004	6	..........a	-327.68
	23	2.4	-2.78886E-001	-3.28894E-001	-3.03890E-001	-1.97466E-008	-7.52500E-008	5.55034E-008	-3.29000E-001	3.93373E-004	6	..........a	-327.68
	24	2.5	-2.76853E-001	-3.26882E-001	-3.01867E-001	-1.87508E-008	-7.43232E-008	5.55724E-008	-3.27000E-001	3.89539E-004	6	..........a	-327.68
	25	2.6	-2.74852E-001	-3.24879E-001	-2.99865E-001	-1.79780E-008	-7.34511E-008	5.54731E-008	-3.25000E-001	4.05706E-004	6	..........a	-327.68
	26	2.7	-2.72889E-001	-3.22858E-001	-2.97874E-001	-1.69046E-008	-7.25490E-008	5.56444E-008	-3.23000E-001	3.92706E-004	6	..........a	-327.68
	27	2.8	-2.70872E-001	-3.20873E-001	-2.95873E-001	-1.60708E-008	-7.16189E-008	5.55481E-008	-3.21000E-001	3.84706E-004	6	..........a	-327.68
	28	2.9	-2.68870E-001	-3.18915E-001	-2.93892E-001	-1.53610E-008	-7.07641E-008	5.54030E-008	-3.19000E-001	3.90873E-004	6	..........a	-327.68
	29	3	-2.66809E-001	-3.16831E-001	-2.91820E-001	-1.43236E-008	-7.00633E-008	5.57398E-008	-3.17000E-001	3.86873E-004	6	..........a	-327.68
	30	3.1	-2.64911E-001	-3.14893E-001	-2.89902E-001	-1.32118E-008	-6.92346E-008	5.60228E-008	-3.15000E-001	3.74706E-004	6	..........a	-327.68
	31	3.2	-2.62906E-001	-3.12913E-001	-2.87909E-001	-1.25824E-008	-6.83254E-008	5.57431E-008	-3.13000E-001	3.88706E-004	6	..........a	-327.68
	32	3.3	-2.60793E-001	-3.10886E-001	-2.85840E-001	-1.14752E-008	-6.76184E-008	5.61431E-008	-3.11000E-001	3.88873E-004	6	..........a	-327.68
	33	3.4	-2.58832E-001	-3.08852E-001	-2.83842E-001	-1.06551E-008	-6.68463E-008	5.61911E-008	-3.09000E-001	3.93539E-004	6	..........a	-327.68
	34	3.5	-2.56880E-001	-3.06839E-001	-2.81859E-001	-9.89268E-009	-6.60252E-008	5.61325E-008	-3.07000E-001	3.84206E-004	6	..........a	-327.68
	35	3.6	-2.54914E-001	-3.04915E-001	-2.79915E-001	-9.13358E-009	-6.53694E-008	5.62358E-008	-3.05000E-001	3.93039E-004	6	..........a	-327.68
	36	3.7	-2.52830E-001	-3.02902E-001	-2.77866E-001	-8.41315E-009	-6.46900E-008	5.62768E-008	-3.03000E-001	3.80706E-004	6	..........a	-327.68
	37	3.8	-2.50849E-001	-3.00870E-001	-2.75859E-001	-7.34368E-009	-6.39086E-008	5.65649E-008	-3.01000E-001	3.82873E-004	6	..........a	-327.68
	38	3.9	-2.48892E-001	-2.98861E-001	-2.73876E-001	-6.96397E-009	-6.34918E-008	5.65279E-008	-2.99000E-001	3.83373E-004	6	..........a	-327.68
	39	4	-2.46875E-001	-2.96878E-001	-2.71876E-001	-6.13520E-009	-6.30038E-008	5.68686E-008	-2.97000E-001	3.82039E-004	6	..........a	-327.68
	40	4.1	-2.44864E-001	-2.94862E-001	-2.69863E-001	-5.45378E-009	-6.22990E-008	5.68452E-008	-2.95000E-001	3.98039E-004	6	..........a	-327.68
	41	4.2	-2.42798E-001	-2.92769E-001	-2.67783E-001	-4.84137E-009	-6.15916E-008	5.67502E-008	-2.93000E-001	3.86873E-004	6	..........a	-327.68
	42	4.3	-2.40909E-001	-2.90822E-001	-2.65866E-001	-4.19062E-009	-6.10485E-008	5.68579E-008	-2.91000E-001	3.72706E-004	6	..........a	-327.68
	43	4.4	-2.38921E-001	-2.88910E-001	-2.63915E-001	-3.65722E-009	-6.03331E-008	5.66759E-008	-2.89000E-001	3.85539E-004	6	..........a	-327.68
	44	4.5	-2.36875E-001	-2.86888E-001	-2.61881E-001	-3.04614E-009	-5.97077E-008	5.66615E-008	-2.87000E-001	3.78039E-004	6	..........a	-327.68
	45	4.6	-2.34827E-001	-2.84854E-001	-2.59841E-001	-2.53607E-009	-5.91379E-008	5.66019E-008	-2.85000E-001	3.75873E-004	6	..........a	-327.68
	46	4.7	-2.32869E-001	-2.82832E-001	-2.57851E-001	-2.07268E-009	-5.83962E-008	5.63235E-008	-2.83000E-001	3.86539E-004	6	..........a	-327.68
	47	4.8	-2.30879E-001	-2.80918E-001	-2.55899E-001	-1.48894E-009	-5.75497E-008	5.60608E-008	-2.81000E-001	3.88706E-004	6	..........a	-327.68
	48	4.9	-2.28823E-001	-2.78888E-001	-2.53856E-001	-1.06455E-009	-5.70757E-008	5.60111E-008	-2.79000E-001	3.82206E-004	6	..........a	-327.68
	49	5	-2.26833E-001	-2.76872E-001	-2.51852E-001	-6.85837E-010	-5.60305E-008	5.53447E-008	-2.77000E-001	3.76539E-004	6	..........a	-327.68
	50	5.1	-2.24878E-001	-2.74854E-001	-2.49866E-001	-3.33792E-010	-5.56188E-008	5.52850E-008	-2.75000E-001	3.95873E-004	6	..........a	-327.68
	51	5.2	-2.22872E-001	-2.72874E-001	-2.47873E-001	2.19195E-011	-5.47117E-008	5.47336E-008	-2.73000E-001	3.71706E-004	6	..........a	-327.68
	52	5.3	-2.20878E-001	-2.70849E-001	-2.45864E-001	4.59642E-010	-5.39179E-008	5.43776E-008	-2.71000E-001	3.82373E-004	6	..........a	-327.68
	53	5.4	-2.18865E-001	-2.68874E-001	-2.43869E-001	7.39011E-010	-5.31925E-008	5.39315E-008	-2.69000E-001	3.76039E-004	6	..........a	-327.68
	54	5.5	-2.16892E-001	-2.66811E-001	-2.41851E-001	9.44037E-010	-5.20414E-008	5.29854E-008	-2.67000E-001	3.82373E-004	6	..........a	-327.68
	55	5.6	-2.14918E-001	-2.64933E-001	-2.39925E-001	1.41210E-009	-5.16587E-008	5.30708E-008	-2.65000E-001	3.85873E-004	6	..........a	-327.68
	56	5.7	-2.12867E-001	-2.62894E-001	-2.37881E-001	1.91916E-009	-5.08452E-008	5.27644E-008	-2.63000E-001	3.84206E-004	6	..........a	-327.68
	57	5.8	-2.10872E-001	-2.60847E-001	-2.35859E-001	2.13519E-009	-4.99734E-008	5.21086E-008	-2.61000E-001	3.72039E-004	6	..........a	-327.68
	58	5.9	-2.08875E-001	-2.58830E-001	-2.33852E-001	2.57824E-009	-4.92460E-008	5.18243E-008	-2.59000E-001	3.72039E-004	6	..........a	-327.68
	59	6	-2.06898E-001	-2.56884E-001	-2.31891E-001	2.84161E-009	-4.82449E-008	5.10865E-008	-2.57000E-001	3.71206E-004	6	..........a	-327.68
	60	6.1	-2.04819E-001	-2.54905E-001	-2.29862E-001	3.22333E-009	-4.77725E-008	5.09958E-008	-2.55000E-001	3.80539E-004	6	..........a	-327.68
	61	6.2	-2.02815E-001	-2.52875E-001	-2.27845E-001	3.56304E-009	-4.69987E-008	5.05618E-008	-2.53000E-001	3.70373E-004	6	..........a	-327.68
	62	6.3	-2.00876E-001	-2.50862E-001	-2.25869E-001	3.71039E-009	-4.61263E-008	4.98367E-008	-2.51000E-001	3.66373E-004	6	..........a	-327.68
	63	6.4	-1.98899E-001	-2.48898E-001	-2.23899E-001	4.06677E-009	-4.53982E-008	4.94650E-008	-2.49000E-001	3.63039E-004	6	..........a	-327.68
	64	6.5	-1.96875E-001	-2.46872E-001	-2.21873E-001	4.47449E-009	-4.46104E-008	4.90849E-008	-2.47000E-001	3.57873E-004	6	..........a	-327.68
	65	6.6	-1.94867E-001	-2.44879E-001	-2.19873E-001	4.68951E-009	-4.38503E-008	4.85398E-008	-2.45000E-001	3.64873E-004	6	..........a	-327.68
	66	6.7	-1.92894E-001	-2.42804E-001	-2.17849E-001	5.07256E-009	-4.32749E-008	4.83475E-008	-2.43000E-001	3.67539E-004	6	..........a	-327.68
	67	6.8	-1.90923E-001	-2.40927E-001	-2.15925E-001	5.39760E-009	-4.25178E-008	4.79154E-008	-2.41000E-001	3.74873E-004	6	..........a	-327.68
	68	6.9	-1.88792E-001	-2.38929E-001	-2.13861E-001	5.75832E-009	-4.17474E-008	4.75057E-008	-2.39000E-001	3.59873E-004	6	..........a	-327.68
	69	7	-1.86834E-001	-2.36847E-001	-2.11841E-001	6.00568E-009	-4.11653E-008	4.71710E-008	-2.37000E-001	3.58373E-004	6	..........a	-327.68
	70	7.1	-1.84912E-001	-2.34829E-001	-2.09870E-001	6.37306E-009	-4.05336E-008	4.69066E-008	-2.35000E-001	3.63873E-004	6	..........a	-327.68
	71	7.2	-1.82887E-001	-2.32874E-001	-2.07881E-001	6.70977E-009	-3.98285E-008	4.65383E-008	-2.33000E-001	3.67039E-004	6	..........a	-327.68
	72	7.3	-1.80783E-001	-2.30885E-001	-2.05834E-001	7.04148E-009	-3.91801E-008	4.62215E-008	-2.31000E-001	3.69873E-004	6	..........a	-327.68
	73	7.4	-1.78809E-001	-2.28754E-001	-2.03781E-001	7.51287E-009	-3.86013E-008	4.61142E-008	-2.29000E-001	3.66039E-004	6	..........a	-327.68
	74	7.5	-1.76855E-001	-2.26837E-001	-2.01846E-001	7.79024E-009	-3.80279E-008	4.58182E-008	-2.27000E-001	3.56373E-004	6	..........a	-327.68
	75	7.6	-1.74895E-001	-2.24886E-001	-1.99890E-001	8.09728E-009	-3.72598E-008	4.53571E-008	-2.25000E-001	3.71539E-004	6	..........a	-327.68
	76	7.7	-1.72830E-001	-2.22884E-001	-1.97857E-001	8.47966E-009	-3.69154E-008	4.53951E-008	-2.23000E-001	3.66373E-004	6	..........a	-327.68
	77	7.8	-1.70836E-001	-2.20861E-001	-1.95849E-001	8.69302E-009	-3.62894E-008	4.49824E-008	-2.21000E-001	3.74039E-004	6	..........a	-327.68
	78	7.9	-1.68877E-001	-2.18868E-001	-1.93872E-001	9.00773E-009	-3.58060E-008	4.48137E-008	-2.19000E-001	3.63373E-004	6	..........a	-327.68
	79	8	-1.66892E-001	-2.16882E-001	-1.91887E-001	9.48379E-009	-3.50619E-008	4.45457E-008	-2.17000E-001	3.57873E-004	6	..........a	-327.68
	80	8.1	-1.64694E-001	-2.14933E-001	-1.89814E-001	9.67248E-009	-3.47932E-008	4.44657E-008	-2.15000E-001	3.64039E-004	6	..........a	-327.68
	81	8.2	-1.62797E-001	-2.12864E-001	-1.87831E-001	1.00649E-008	-3.43848E-008	4.44497E-008	-2.13000E-001	3.60873E-004	6	..........a	-327.68
	82	8.3	-1.60917E-001	-2.10875E-001	-1.85896E-001	1.03979E-008	-3.36180E-008	4.40159E-008	-2.11000E-001	3.43539E-004	6	..........a	-327.68
	83	8.4	-1.58910E-001	-2.08898E-001	-1.83904E-001	1.08020E-008	-3.32920E-008	4.40939E-008	-2.09000E-001	3.63873E-004	6	..........a	-327.68
	84	8.5	-1.56803E-001	-2.06902E-001	-1.81852E-001	1.11960E-008	-3.27883E-008	4.39843E-008	-2.07000E-001	3.61706E-004	6	..........a	-327.68
	85	8.6	-1.54804E-001	-2.04826E-001	-1.79815E-001	1.13310E-008	-3.22999E-008	4.36309E-008	-2.05000E-001	3.69373E-004	6	..........a	-327.68
	86	8.7	-1.52882E-001	-2.02838E-001	-1.77860E-001	1.18378E-008	-3.19585E-008	4.37962E-008	-2.03000E-001	3.53706E-004	6	..........a	-327.68
	87	8.8	-1.50893E-001	-2.00882E-001	-1.75887E-001	1.20494E-008	-3.16291E-008	4.36786E-008	-2.01000E-001	3.55539E-004	6	..........a	-327.68
	88	8.9	-1.48841E-001	-1.98900E-001	-1.73871E-001	1.22841E-008	-3.11247E-008	4.34089E-008	-1.99000E-001	3.56373E-004	6	..........a	-327.68
	89	9	-1.46842E-001	-1.96874E-001	-1.71858E-001	1.26802E-008	-3.06256E-008	4.33058E-008	-1.97000E-001	3.66039E-004	6	..........a	-327.68
	90	9.1	-1.44876E-001	-1.94863E-001	-1.69869E-001	1.29776E-008	-3.01509E-008	4.31285E-008	-1.95000E-001	3.67539E-004	6	..........a	-327.68
	91	9.2	-1.42895E-001	-1.92873E-001	-1.67884E-001	1.32536E-008	-2.99856E-008	4.32392E-008	-1.93000E-001	3.61873E-004	6	..........a	-327.68
	92	9.3	-1.40872E-001	-1.90926E-001	-1.65899E-001	1.35720E-008	-2.94948E-008	4.30668E-008	-1.91000E-001	3.63039E-004	6	..........a	-327.68
	93	9.4	-1.38789E-001	-1.88783E-001	-1.63786E-001	1.39004E-008	-2.91791E-008	4.30795E-008	-1.89000E-001	3.63539E-004	6	..........a	-327.68
	94	9.5	-1.36907E-001	-1.86860E-001	-1.61883E-001	1.42421E-008	-2.87617E-008	4.30038E-008	-1.87000E-001	3.68539E-004	6	..........a	-327.68
	95	9.6	-1.34906E-001	-1.84910E-001	-1.59908E-001	1.45248E-008	-2.82960E-008	4.28208E-008	-1.85000E-001	3.71039E-004	6	..........a	-327.68
	96	9.7	-1.32772E-001	-1.82881E-001	-1.57826E-001	1.46591E-008	-2.78283E-008	4.24874E-008	-1.83000E-001	3.64206E-004	6	..........a	-327.68
	97	9.8	-1.30802E-001	-1.80838E-001	-1.55820E-001	1.50715E-008	-2.76013E-008	4.26728E-008	-1.81000E-001	3.61706E-004	6	..........a	-327.68
	98	9.9	-1.28849E-001	-1.78839E-001	-1.53844E-001	1.52705E-008	-2.73776E-008	4.26481E-008	-1.79000E-001	3.77039E-004	6	..........a	-327.68
	99	10	-1.26911E-001	-1.76878E-001	-1.51895E-001	1.58329E-008	-2.70382E-008	4.28711E-008	-1.77000E-001	3.65206E-004	6	..........a	-327.68
	100	10.1	-1.24803E-001	-1.74891E-001	-1.49847E-001	1.58689E-008	-2.66528E-008	4.25217E-008	-1.75000E-001	3.85206E-004	6	..........a	-327.68
