EXPLAIN
TAG	SQUARE_WAVE
TITLE	LABEL	Square Wave Voltammetry	Test Identifier
DATE	LABEL	8/10/2020	Date
TIME	LABEL	19:16:17	Time
NOTES	NOTES	1	Notes...
	
PSTAT	PSTAT	REF600-24079	Potentiostat
VINIT	QUANT	-3.50000E-001	Initial E (V)
VFINAL	QUANT	-1.50000E-001	Final E (V)
STEPSIZE	QUANT	2.00000E+000	Step Size (mV)
TIMERRES	QUANT	3.33340E-005	&Timer Resolution
FREQUENCY	QUANT	5.00000E+001	Frequency (Hz)
PULSESIZE	QUANT	2.50000E+001	Pulse Size E (mV)
PULSEON	QUANT	2.00000E-002	Pulse &Time (s)
NOISEREJECT	TOGGLE	F	Noise Rejection
AREA	QUANT	2.00000E-002	Sample Area (cm^2)
IMODE	SELECTOR	1	I/E Range Mode
IRANGE	QUANT	1.00000E-003	Max Current (mA)
EQDELAY	IQUANT	10	Equil. Time (s)
IRCOMP	SELECTOR	0	IRComp
PFCOR	QUANT	5.00000E+001	PF Corr. (ohm)
CYCLES	IQUANT	101	C&ycles (#)
ELECTRODETYPE	SELECTOR	0	Electrode Type
STRIPPING	TOGGLE	F	Used for Stripping
POLARITY	TOGGLE	F	Signal Polarity
LINEFREQ	IQUANT	60	Line Frequency (Hz)
INTPERIOD	QUANT	3.3334E-005	Integration Period (s)
SEQUENCER	TOGGLE	TRUE	Run as Sequence
PSTATMODEL	IQUANT	4	Pstat Model
PSTATSECTION	LABEL	REF600-24079	Pstat Section
PSTATSERIALNO	LABEL	24079	Pstat Serial Number
CTRLMODE	IQUANT	1	Control Mode
ELECTROMETER	IQUANT	0	RE=0 or CS=1
IESTAB	IQUANT	2	I/E Stability
CASPEED	IQUANT	6	Control Amp Speed
CONVENTION	IQUANT	1	Current Convention
ICHRANGE	IQUANT	2	Ich Range
ICHRANGEMODE	TOGGLE	F	Ich Auto Range
ICHOFFSETENABLE	TOGGLE	F	Ich Offset Enable
ICHOFFSET	QUANT	0	Ich Offset (V)
ICHFILTER	IQUANT	2	Ich Filter
VCHRANGE	IQUANT	2	Vch Range
VCHRANGEMODE	TOGGLE	F	Vch Auto Range
VCHOFFSETENABLE	TOGGLE	F	Vch Offset Enable
VCHOFFSET	QUANT	0	Vch Offset (V)
VCHFILTER	IQUANT	2	Vch Filter
ACHRANGE	IQUANT	2	Ach Range
ACHOFFSETENABLE	TOGGLE	F	Ach Offset Enable
ACHOFFSET	QUANT	0	Ach Offset (V)
ACHFILTER	IQUANT	1	Ach Filter
IERANGELOWERLIMIT	IQUANT	1	I/E Range Lower Limit
IERANGEMODE	TOGGLE	F	I/E AutoRange
IERANGE	IQUANT	6	I/E Range
POSFEEDENABLE	TOGGLE	F	Positive Feedback IR Comp
POSFEEDRESISTANCE	QUANT	0	Positive Feedback Resistance (ohm)
ACHSELECT	IQUANT	0	Ach Select
SENSECABLEID	IQUANT	13	Sense Cable ID
PWRCABLEID	IQUANT	13	Power Cable ID
DCCALDATE	LABEL	6/30/2020	DC Calibration Date
ACCALDATE	LABEL	6/30/2020	AC Calibration Date
THERMOSELECT	IQUANT	1	Thermo Select
FRAMEWORKVERSION	LABEL	7.8.2	Framework Version
INSTRUMENTVERSION	LABEL	4.40	Instrument Version
CURVE	TABLE	101
	Pt	T	Vfwd	Vrev	Vstep	Ifwd	Irev	Idif	Sig	Ach	IERange	Over	Temp
	#	s	V	V	V	A	A	A	V	V	#	bits	deg C
	0	0.02	-3.24886E-001	-3.76085E-001	-3.50486E-001	-1.08503E-007	9.04251E-007	-1.01275E-006	-3.75000E-001	3.64373E-004	6	..........a	-327.68
	1	0.04	-3.22506E-001	-3.73440E-001	-3.47973E-001	-1.29510E-006	9.14479E-007	-2.20958E-006	-3.73000E-001	3.49373E-004	6	..........a	-327.68
	2	0.06	-3.20468E-001	-3.71426E-001	-3.45947E-001	-1.27107E-006	9.26910E-007	-2.19798E-006	-3.71000E-001	3.56039E-004	6	..........a	-327.68
	3	0.08	-3.18479E-001	-3.69413E-001	-3.43946E-001	-1.26453E-006	9.33044E-007	-2.19757E-006	-3.69000E-001	3.60206E-004	6	..........a	-327.68
	4	0.1	-3.16473E-001	-3.67416E-001	-3.41945E-001	-1.25866E-006	9.38445E-007	-2.19710E-006	-3.67000E-001	3.51873E-004	6	..........a	-327.68
	5	0.12	-3.14473E-001	-3.65409E-001	-3.39941E-001	-1.25394E-006	9.42707E-007	-2.19665E-006	-3.65000E-001	3.66039E-004	6	..........a	-327.68
	6	0.14	-3.12490E-001	-3.63398E-001	-3.37944E-001	-1.25068E-006	9.47294E-007	-2.19797E-006	-3.63000E-001	3.52706E-004	6	..........a	-327.68
	7	0.16	-3.10494E-001	-3.61394E-001	-3.35944E-001	-1.24753E-006	9.52760E-007	-2.20029E-006	-3.61000E-001	3.48539E-004	6	..........a	-327.68
	8	0.18	-3.08491E-001	-3.59386E-001	-3.33938E-001	-1.24523E-006	9.56552E-007	-2.20179E-006	-3.59000E-001	3.48539E-004	6	..........a	-327.68
	9	0.2	-3.06496E-001	-3.57383E-001	-3.31939E-001	-1.24135E-006	9.59564E-007	-2.20092E-006	-3.57000E-001	3.45206E-004	6	..........a	-327.68
	10	0.22	-3.04513E-001	-3.55388E-001	-3.29951E-001	-1.23773E-006	9.62730E-007	-2.20046E-006	-3.55000E-001	3.60206E-004	6	..........a	-327.68
	11	0.24	-3.02499E-001	-3.53376E-001	-3.27938E-001	-1.23526E-006	9.66847E-007	-2.20210E-006	-3.53000E-001	3.58539E-004	6	..........a	-327.68
	12	0.26	-3.00528E-001	-3.51347E-001	-3.25938E-001	-1.23292E-006	9.70871E-007	-2.20379E-006	-3.51000E-001	3.60206E-004	6	..........a	-327.68
	13	0.28	-2.98534E-001	-3.49356E-001	-3.23945E-001	-1.23013E-006	9.73684E-007	-2.20381E-006	-3.49000E-001	3.56039E-004	6	..........a	-327.68
	14	0.3	-2.96533E-001	-3.47363E-001	-3.21948E-001	-1.22813E-006	9.75913E-007	-2.20404E-006	-3.47000E-001	3.57706E-004	6	..........a	-327.68
	15	0.32	-2.94526E-001	-3.45326E-001	-3.19926E-001	-1.22407E-006	9.79155E-007	-2.20323E-006	-3.45000E-001	3.39373E-004	6	..........a	-327.68
	16	0.34	-2.92539E-001	-3.43332E-001	-3.17936E-001	-1.22124E-006	9.82087E-007	-2.20333E-006	-3.43000E-001	3.38539E-004	6	..........a	-327.68
	17	0.36	-2.90516E-001	-3.41342E-001	-3.15929E-001	-1.21956E-006	9.86049E-007	-2.20561E-006	-3.41000E-001	3.51873E-004	6	..........a	-327.68
	18	0.38	-2.88529E-001	-3.39349E-001	-3.13939E-001	-1.21765E-006	9.89086E-007	-2.20674E-006	-3.39000E-001	3.46873E-004	6	..........a	-327.68
	19	0.4	-2.86526E-001	-3.37320E-001	-3.11923E-001	-1.21479E-006	9.90597E-007	-2.20538E-006	-3.37000E-001	3.55206E-004	6	..........a	-327.68
	20	0.42	-2.84523E-001	-3.35311E-001	-3.09917E-001	-1.21130E-006	9.92890E-007	-2.20419E-006	-3.35000E-001	3.68539E-004	6	..........a	-327.68
	21	0.44	-2.82524E-001	-3.33306E-001	-3.07915E-001	-1.20974E-006	9.95942E-007	-2.20568E-006	-3.33000E-001	3.67706E-004	6	..........a	-327.68
	22	0.46	-2.80533E-001	-3.31323E-001	-3.05928E-001	-1.20762E-006	9.98999E-007	-2.20662E-006	-3.31000E-001	3.52706E-004	6	..........a	-327.68
	23	0.48	-2.78518E-001	-3.29311E-001	-3.03914E-001	-1.20577E-006	1.00176E-006	-2.20753E-006	-3.29000E-001	3.77706E-004	6	..........a	-327.68
	24	0.5	-2.76517E-001	-3.27301E-001	-3.01909E-001	-1.20283E-006	1.00339E-006	-2.20622E-006	-3.27000E-001	3.55206E-004	6	..........a	-327.68
	25	0.52	-2.74536E-001	-3.25294E-001	-2.99915E-001	-1.19951E-006	1.00521E-006	-2.20472E-006	-3.25000E-001	3.46039E-004	6	..........a	-327.68
	26	0.54	-2.72517E-001	-3.23296E-001	-2.97907E-001	-1.19764E-006	1.00798E-006	-2.20562E-006	-3.23000E-001	3.69373E-004	6	..........a	-327.68
	27	0.56	-2.70496E-001	-3.21308E-001	-2.95902E-001	-1.19632E-006	1.01089E-006	-2.20721E-006	-3.21000E-001	3.49373E-004	6	..........a	-327.68
	28	0.58	-2.68502E-001	-3.19299E-001	-2.93901E-001	-1.19381E-006	1.01285E-006	-2.20666E-006	-3.19000E-001	3.47706E-004	6	..........a	-327.68
	29	0.6	-2.66539E-001	-3.17281E-001	-2.91910E-001	-1.19117E-006	1.01399E-006	-2.20516E-006	-3.17000E-001	3.61039E-004	6	..........a	-327.68
	30	0.62	-2.64519E-001	-3.15302E-001	-2.89911E-001	-1.18872E-006	1.01493E-006	-2.20365E-006	-3.15000E-001	3.45206E-004	6	..........a	-327.68
	31	0.64	-2.62518E-001	-3.13289E-001	-2.87903E-001	-1.18605E-006	1.01769E-006	-2.20373E-006	-3.13000E-001	3.46039E-004	6	..........a	-327.68
	32	0.66	-2.60518E-001	-3.11297E-001	-2.85908E-001	-1.18448E-006	1.02086E-006	-2.20534E-006	-3.11000E-001	3.51873E-004	6	..........a	-327.68
	33	0.68	-2.58511E-001	-3.09284E-001	-2.83897E-001	-1.18320E-006	1.02212E-006	-2.20532E-006	-3.09000E-001	3.38539E-004	6	..........a	-327.68
	34	0.7	-2.56511E-001	-3.07302E-001	-2.81907E-001	-1.18018E-006	1.02281E-006	-2.20299E-006	-3.07000E-001	3.41873E-004	6	..........a	-327.68
	35	0.72	-2.54520E-001	-3.05297E-001	-2.79908E-001	-1.17781E-006	1.02448E-006	-2.20230E-006	-3.05000E-001	3.66873E-004	6	..........a	-327.68
	36	0.74	-2.52518E-001	-3.03311E-001	-2.77915E-001	-1.17527E-006	1.02659E-006	-2.20186E-006	-3.03000E-001	3.54373E-004	6	..........a	-327.68
	37	0.76	-2.50505E-001	-3.01282E-001	-2.75893E-001	-1.17419E-006	1.02892E-006	-2.20311E-006	-3.01000E-001	3.56039E-004	6	..........a	-327.68
	38	0.78	-2.48504E-001	-2.99286E-001	-2.73895E-001	-1.17338E-006	1.03008E-006	-2.20346E-006	-2.99000E-001	3.58539E-004	6	..........a	-327.68
	39	0.8	-2.46522E-001	-2.97299E-001	-2.71911E-001	-1.17121E-006	1.03098E-006	-2.20219E-006	-2.97000E-001	3.47706E-004	6	..........a	-327.68
	40	0.82	-2.44505E-001	-2.95254E-001	-2.69879E-001	-1.16765E-006	1.03223E-006	-2.19988E-006	-2.95000E-001	3.59373E-004	6	..........a	-327.68
	41	0.84	-2.42494E-001	-2.93274E-001	-2.67884E-001	-1.16536E-006	1.03403E-006	-2.19939E-006	-2.93000E-001	3.47706E-004	6	..........a	-327.68
	42	0.86	-2.40506E-001	-2.91295E-001	-2.65901E-001	-1.16525E-006	1.03599E-006	-2.20125E-006	-2.91000E-001	3.68539E-004	6	..........a	-327.68
	43	0.88	-2.38514E-001	-2.89277E-001	-2.63896E-001	-1.16420E-006	1.03610E-006	-2.20030E-006	-2.89000E-001	3.65206E-004	6	..........a	-327.68
	44	0.9	-2.36505E-001	-2.87304E-001	-2.61904E-001	-1.16196E-006	1.03705E-006	-2.19901E-006	-2.87000E-001	3.69373E-004	6	..........a	-327.68
	45	0.92	-2.34511E-001	-2.85252E-001	-2.59881E-001	-1.15960E-006	1.03817E-006	-2.19777E-006	-2.85000E-001	3.75206E-004	6	..........a	-327.68
	46	0.94	-2.32504E-001	-2.83265E-001	-2.57884E-001	-1.15847E-006	1.03939E-006	-2.19786E-006	-2.83000E-001	3.88539E-004	6	..........a	-327.68
	47	0.96	-2.30496E-001	-2.81266E-001	-2.55881E-001	-1.15756E-006	1.04182E-006	-2.19938E-006	-2.81000E-001	3.79373E-004	6	..........a	-327.68
	48	0.98	-2.28503E-001	-2.79264E-001	-2.53883E-001	-1.15602E-006	1.04293E-006	-2.19895E-006	-2.79000E-001	3.63539E-004	6	..........a	-327.68
	49	1	-2.26507E-001	-2.77261E-001	-2.51884E-001	-1.15496E-006	1.04303E-006	-2.19799E-006	-2.77000E-001	3.50206E-004	6	..........a	-327.68
	50	1.02	-2.24515E-001	-2.75260E-001	-2.49887E-001	-1.15329E-006	1.04383E-006	-2.19713E-006	-2.75000E-001	3.61873E-004	6	..........a	-327.68
	51	1.04	-2.22517E-001	-2.73281E-001	-2.47899E-001	-1.15252E-006	1.04541E-006	-2.19793E-006	-2.73000E-001	3.73539E-004	6	..........a	-327.68
	52	1.06	-2.20512E-001	-2.71272E-001	-2.45892E-001	-1.15177E-006	1.04716E-006	-2.19892E-006	-2.71000E-001	3.73539E-004	6	..........a	-327.68
	53	1.08	-2.18517E-001	-2.69283E-001	-2.43900E-001	-1.15070E-006	1.04830E-006	-2.19900E-006	-2.69000E-001	3.56039E-004	6	..........a	-327.68
	54	1.1	-2.16526E-001	-2.67251E-001	-2.41888E-001	-1.14956E-006	1.04841E-006	-2.19796E-006	-2.67000E-001	3.55206E-004	6	..........a	-327.68
	55	1.12	-2.14523E-001	-2.65266E-001	-2.39894E-001	-1.14808E-006	1.04935E-006	-2.19742E-006	-2.65000E-001	3.41873E-004	6	..........a	-327.68
	56	1.14	-2.12526E-001	-2.63276E-001	-2.37901E-001	-1.14755E-006	1.05112E-006	-2.19867E-006	-2.63000E-001	3.30206E-004	6	..........a	-327.68
	57	1.16	-2.10561E-001	-2.61276E-001	-2.35918E-001	-1.14761E-006	1.05295E-006	-2.20056E-006	-2.61000E-001	3.56039E-004	6	..........a	-327.68
	58	1.18	-2.08524E-001	-2.59235E-001	-2.33879E-001	-1.14701E-006	1.05327E-006	-2.20029E-006	-2.59000E-001	3.41873E-004	6	..........a	-327.68
	59	1.2	-2.06513E-001	-2.57246E-001	-2.31880E-001	-1.14569E-006	1.05441E-006	-2.20010E-006	-2.57000E-001	3.69373E-004	6	..........a	-327.68
	60	1.22	-2.04557E-001	-2.55247E-001	-2.29902E-001	-1.14456E-006	1.05488E-006	-2.19945E-006	-2.55000E-001	3.68539E-004	6	..........a	-327.68
	61	1.24	-2.02541E-001	-2.53239E-001	-2.27890E-001	-1.14412E-006	1.05684E-006	-2.20095E-006	-2.53000E-001	3.56039E-004	6	..........a	-327.68
	62	1.26	-2.00536E-001	-2.51244E-001	-2.25890E-001	-1.14427E-006	1.05912E-006	-2.20339E-006	-2.51000E-001	3.46873E-004	6	..........a	-327.68
	63	1.28	-1.98542E-001	-2.49245E-001	-2.23893E-001	-1.14369E-006	1.05887E-006	-2.20256E-006	-2.49000E-001	3.44373E-004	6	..........a	-327.68
	64	1.3	-1.96560E-001	-2.47231E-001	-2.21896E-001	-1.14317E-006	1.06014E-006	-2.20331E-006	-2.47000E-001	3.52706E-004	6	..........a	-327.68
	65	1.32	-1.94546E-001	-2.45231E-001	-2.19888E-001	-1.14098E-006	1.06061E-006	-2.20159E-006	-2.45000E-001	3.54373E-004	6	..........a	-327.68
	66	1.34	-1.92551E-001	-2.43238E-001	-2.17895E-001	-1.14207E-006	1.06241E-006	-2.20449E-006	-2.43000E-001	3.60206E-004	6	..........a	-327.68
	67	1.36	-1.90536E-001	-2.41226E-001	-2.15881E-001	-1.14176E-006	1.06490E-006	-2.20666E-006	-2.41000E-001	3.41039E-004	6	..........a	-327.68
	68	1.38	-1.88556E-001	-2.39233E-001	-2.13894E-001	-1.14151E-006	1.06497E-006	-2.20648E-006	-2.39000E-001	3.66039E-004	6	..........a	-327.68
	69	1.4	-1.86561E-001	-2.37233E-001	-2.11897E-001	-1.14090E-006	1.06568E-006	-2.20658E-006	-2.37000E-001	3.61873E-004	6	..........a	-327.68
	70	1.42	-1.84558E-001	-2.35195E-001	-2.09876E-001	-1.13914E-006	1.06697E-006	-2.20611E-006	-2.35000E-001	3.63539E-004	6	..........a	-327.68
	71	1.44	-1.82551E-001	-2.33201E-001	-2.07876E-001	-1.13911E-006	1.06818E-006	-2.20729E-006	-2.33000E-001	3.56873E-004	6	..........a	-327.68
	72	1.46	-1.80533E-001	-2.31227E-001	-2.05880E-001	-1.13896E-006	1.07078E-006	-2.20974E-006	-2.31000E-001	3.65206E-004	6	..........a	-327.68
	73	1.48	-1.78570E-001	-2.29191E-001	-2.03880E-001	-1.13946E-006	1.07091E-006	-2.21037E-006	-2.29000E-001	3.62706E-004	6	..........a	-327.68
	74	1.5	-1.76550E-001	-2.27219E-001	-2.01884E-001	-1.13775E-006	1.07173E-006	-2.20948E-006	-2.27000E-001	3.61039E-004	6	..........a	-327.68
	75	1.52	-1.74581E-001	-2.25196E-001	-1.99888E-001	-1.13669E-006	1.07243E-006	-2.20912E-006	-2.25000E-001	3.55206E-004	6	..........a	-327.68
	76	1.54	-1.72568E-001	-2.23219E-001	-1.97893E-001	-1.13670E-006	1.07402E-006	-2.21072E-006	-2.23000E-001	3.57706E-004	6	..........a	-327.68
	77	1.56	-1.70589E-001	-2.21212E-001	-1.95901E-001	-1.13747E-006	1.07628E-006	-2.21376E-006	-2.21000E-001	3.41873E-004	6	..........a	-327.68
	78	1.58	-1.68576E-001	-2.19182E-001	-1.93879E-001	-1.13651E-006	1.07668E-006	-2.21319E-006	-2.19000E-001	3.66873E-004	6	..........a	-327.68
	79	1.6	-1.66567E-001	-2.17199E-001	-1.91883E-001	-1.13571E-006	1.07720E-006	-2.21291E-006	-2.17000E-001	3.52706E-004	6	..........a	-327.68
	80	1.62	-1.64581E-001	-2.15194E-001	-1.89887E-001	-1.13403E-006	1.07800E-006	-2.21203E-006	-2.15000E-001	3.62706E-004	6	..........a	-327.68
	81	1.64	-1.62568E-001	-2.13208E-001	-1.87888E-001	-1.13431E-006	1.07970E-006	-2.21402E-006	-2.13000E-001	3.63539E-004	6	..........a	-327.68
	82	1.66	-1.60575E-001	-2.11201E-001	-1.85888E-001	-1.13463E-006	1.08119E-006	-2.21582E-006	-2.11000E-001	3.69373E-004	6	..........a	-327.68
	83	1.68	-1.58581E-001	-2.09190E-001	-1.83886E-001	-1.13456E-006	1.08167E-006	-2.21623E-006	-2.09000E-001	3.59373E-004	6	..........a	-327.68
	84	1.7	-1.56601E-001	-2.07186E-001	-1.81893E-001	-1.13277E-006	1.08241E-006	-2.21518E-006	-2.07000E-001	3.38539E-004	6	..........a	-327.68
	85	1.72	-1.54569E-001	-2.05182E-001	-1.79876E-001	-1.13140E-006	1.08267E-006	-2.21407E-006	-2.05000E-001	3.52706E-004	6	..........a	-327.68
	86	1.74	-1.52570E-001	-2.03196E-001	-1.77883E-001	-1.13144E-006	1.08490E-006	-2.21634E-006	-2.03000E-001	3.56873E-004	6	..........a	-327.68
	87	1.76	-1.50595E-001	-2.01213E-001	-1.75904E-001	-1.13135E-006	1.08651E-006	-2.21786E-006	-2.01000E-001	3.57706E-004	6	..........a	-327.68
	88	1.78	-1.48596E-001	-1.99191E-001	-1.73893E-001	-1.13082E-006	1.08651E-006	-2.21733E-006	-1.99000E-001	3.46873E-004	6	..........a	-327.68
	89	1.8	-1.46598E-001	-1.97181E-001	-1.71889E-001	-1.13041E-006	1.08711E-006	-2.21752E-006	-1.97000E-001	3.60206E-004	6	..........a	-327.68
	90	1.82	-1.44576E-001	-1.95186E-001	-1.69881E-001	-1.12873E-006	1.08811E-006	-2.21685E-006	-1.95000E-001	3.52706E-004	6	..........a	-327.68
	91	1.84	-1.42576E-001	-1.93191E-001	-1.67883E-001	-1.12842E-006	1.08930E-006	-2.21772E-006	-1.93000E-001	3.50206E-004	6	..........a	-327.68
	92	1.86	-1.40567E-001	-1.91176E-001	-1.65872E-001	-1.12862E-006	1.09069E-006	-2.21931E-006	-1.91000E-001	3.45206E-004	6	..........a	-327.68
	93	1.88	-1.38601E-001	-1.89165E-001	-1.63883E-001	-1.12842E-006	1.09080E-006	-2.21922E-006	-1.89000E-001	3.48539E-004	6	..........a	-327.68
	94	1.9	-1.36567E-001	-1.87190E-001	-1.61878E-001	-1.12790E-006	1.09115E-006	-2.21905E-006	-1.87000E-001	3.59373E-004	6	..........a	-327.68
	95	1.92	-1.34572E-001	-1.85176E-001	-1.59874E-001	-1.12596E-006	1.09171E-006	-2.21767E-006	-1.85000E-001	3.62706E-004	6	..........a	-327.68
	96	1.94	-1.32569E-001	-1.83191E-001	-1.57880E-001	-1.12567E-006	1.09329E-006	-2.21895E-006	-1.83000E-001	3.63539E-004	6	..........a	-327.68
	97	1.96	-1.30540E-001	-1.81163E-001	-1.55851E-001	-1.12622E-006	1.09467E-006	-2.22089E-006	-1.81000E-001	3.48539E-004	6	..........a	-327.68
	98	1.98	-1.28562E-001	-1.79164E-001	-1.53863E-001	-1.12553E-006	1.09476E-006	-2.22030E-006	-1.79000E-001	3.52706E-004	6	..........a	-327.68
	99	2	-1.26538E-001	-1.77143E-001	-1.51841E-001	-1.12474E-006	1.09511E-006	-2.21985E-006	-1.77000E-001	3.42706E-004	6	..........a	-327.68
	100	2.02	-1.24569E-001	-1.75162E-001	-1.49866E-001	-1.12296E-006	1.09517E-006	-2.21813E-006	-1.75000E-001	3.66039E-004	6	..........a	-327.68
