EXPLAIN
TAG	SQUARE_WAVE
TITLE	LABEL	Square Wave Voltammetry	Test Identifier
DATE	LABEL	8/10/2020	Date
TIME	LABEL	16:41:24	Time
NOTES	NOTES	1	Notes...
	
PSTAT	PSTAT	REF600-24079	Potentiostat
VINIT	QUANT	-3.50000E-001	Initial E (V)
VFINAL	QUANT	-1.50000E-001	Final E (V)
STEPSIZE	QUANT	2.00000E+000	Step Size (mV)
TIMERRES	QUANT	3.33340E-005	&Timer Resolution
FREQUENCY	QUANT	2.00000E+002	Frequency (Hz)
PULSESIZE	QUANT	2.50000E+001	Pulse Size E (mV)
PULSEON	QUANT	5.00000E-003	Pulse &Time (s)
NOISEREJECT	TOGGLE	F	Noise Rejection
AREA	QUANT	2.00000E-002	Sample Area (cm^2)
IMODE	SELECTOR	1	I/E Range Mode
IRANGE	QUANT	1.00000E-002	Max Current (mA)
EQDELAY	IQUANT	10	Equil. Time (s)
IRCOMP	SELECTOR	0	IRComp
PFCOR	QUANT	5.00000E+001	PF Corr. (ohm)
CYCLES	IQUANT	101	C&ycles (#)
ELECTRODETYPE	SELECTOR	0	Electrode Type
STRIPPING	TOGGLE	F	Used for Stripping
POLARITY	TOGGLE	F	Signal Polarity
LINEFREQ	IQUANT	60	Line Frequency (Hz)
INTPERIOD	QUANT	3.3334E-005	Integration Period (s)
SEQUENCER	TOGGLE	TRUE	Run as Sequence
PSTATMODEL	IQUANT	4	Pstat Model
PSTATSECTION	LABEL	REF600-24079	Pstat Section
PSTATSERIALNO	LABEL	24079	Pstat Serial Number
CTRLMODE	IQUANT	1	Control Mode
ELECTROMETER	IQUANT	0	RE=0 or CS=1
IESTAB	IQUANT	2	I/E Stability
CASPEED	IQUANT	6	Control Amp Speed
CONVENTION	IQUANT	1	Current Convention
ICHRANGE	IQUANT	2	Ich Range
ICHRANGEMODE	TOGGLE	F	Ich Auto Range
ICHOFFSETENABLE	TOGGLE	F	Ich Offset Enable
ICHOFFSET	QUANT	0	Ich Offset (V)
ICHFILTER	IQUANT	2	Ich Filter
VCHRANGE	IQUANT	2	Vch Range
VCHRANGEMODE	TOGGLE	F	Vch Auto Range
VCHOFFSETENABLE	TOGGLE	F	Vch Offset Enable
VCHOFFSET	QUANT	0	Vch Offset (V)
VCHFILTER	IQUANT	1	Vch Filter
ACHRANGE	IQUANT	2	Ach Range
ACHOFFSETENABLE	TOGGLE	F	Ach Offset Enable
ACHOFFSET	QUANT	0	Ach Offset (V)
ACHFILTER	IQUANT	1	Ach Filter
IERANGELOWERLIMIT	IQUANT	1	I/E Range Lower Limit
IERANGEMODE	TOGGLE	F	I/E AutoRange
IERANGE	IQUANT	7	I/E Range
POSFEEDENABLE	TOGGLE	F	Positive Feedback IR Comp
POSFEEDRESISTANCE	QUANT	0	Positive Feedback Resistance (ohm)
ACHSELECT	IQUANT	0	Ach Select
SENSECABLEID	IQUANT	13	Sense Cable ID
PWRCABLEID	IQUANT	13	Power Cable ID
DCCALDATE	LABEL	6/30/2020	DC Calibration Date
ACCALDATE	LABEL	6/30/2020	AC Calibration Date
THERMOSELECT	IQUANT	1	Thermo Select
FRAMEWORKVERSION	LABEL	7.8.2	Framework Version
INSTRUMENTVERSION	LABEL	4.40	Instrument Version
CURVE	TABLE	101
	Pt	T	Vfwd	Vrev	Vstep	Ifwd	Irev	Idif	Sig	Ach	IERange	Over	Temp
	#	s	V	V	V	A	A	A	V	V	#	bits	deg C
	0	0.005	-3.26414E-001	-3.82501E-001	-3.54457E-001	-6.91140E-008	-3.19487E-006	3.12576E-006	-3.75000E-001	3.39373E-004	7	..........a	-327.68
	1	0.01	-3.17704E-001	-3.81187E-001	-3.49446E-001	3.06378E-006	-3.37837E-006	6.44214E-006	-3.73000E-001	3.12706E-004	7	..........a	-327.68
	2	0.015	-3.15568E-001	-3.79158E-001	-3.47363E-001	3.11999E-006	-3.34669E-006	6.46668E-006	-3.71000E-001	2.86039E-004	7	..........a	-327.68
	3	0.02	-3.13581E-001	-3.77184E-001	-3.45383E-001	3.13246E-006	-3.32996E-006	6.46241E-006	-3.69000E-001	3.62706E-004	7	..........a	-327.68
	4	0.025	-3.11637E-001	-3.75201E-001	-3.43419E-001	3.14039E-006	-3.31002E-006	6.45041E-006	-3.67000E-001	2.99373E-004	7	..........a	-327.68
	5	0.03	-3.09588E-001	-3.73201E-001	-3.41394E-001	3.14706E-006	-3.30229E-006	6.44935E-006	-3.65000E-001	3.19373E-004	7	..........a	-327.68
	6	0.035	-3.07634E-001	-3.71194E-001	-3.39414E-001	3.14386E-006	-3.28989E-006	6.43374E-006	-3.63000E-001	3.19373E-004	7	..........a	-327.68
	7	0.04	-3.05594E-001	-3.69148E-001	-3.37371E-001	3.15233E-006	-3.28469E-006	6.43701E-006	-3.61000E-001	2.96039E-004	7	..........a	-327.68
	8	0.045	-3.03661E-001	-3.67221E-001	-3.35441E-001	3.14719E-006	-3.27842E-006	6.42561E-006	-3.59000E-001	3.29373E-004	7	..........a	-327.68
	9	0.05	-3.01611E-001	-3.65204E-001	-3.33408E-001	3.15312E-006	-3.26788E-006	6.42101E-006	-3.57000E-001	2.99373E-004	7	..........a	-327.68
	10	0.055	-2.99588E-001	-3.63221E-001	-3.31404E-001	3.15066E-006	-3.26142E-006	6.41207E-006	-3.55000E-001	3.39373E-004	7	..........a	-327.68
	11	0.06	-2.97621E-001	-3.61164E-001	-3.29392E-001	3.15546E-006	-3.25422E-006	6.40967E-006	-3.53000E-001	3.09373E-004	7	..........a	-327.68
	12	0.065	-2.95641E-001	-3.59148E-001	-3.27394E-001	3.15293E-006	-3.25061E-006	6.40354E-006	-3.51000E-001	2.89373E-004	7	..........a	-327.68
	13	0.07	-2.93678E-001	-3.57198E-001	-3.25438E-001	3.15246E-006	-3.24175E-006	6.39420E-006	-3.49000E-001	3.06039E-004	7	..........a	-327.68
	14	0.075	-2.91607E-001	-3.55154E-001	-3.23381E-001	3.15719E-006	-3.23555E-006	6.39274E-006	-3.47000E-001	2.82706E-004	7	..........a	-327.68
	15	0.08	-2.89601E-001	-3.53174E-001	-3.21388E-001	3.15186E-006	-3.23201E-006	6.38387E-006	-3.45000E-001	2.79373E-004	7	..........a	-327.68
	16	0.085	-2.87584E-001	-3.51174E-001	-3.19379E-001	3.15579E-006	-3.22594E-006	6.38174E-006	-3.43000E-001	3.29373E-004	7	..........a	-327.68
	17	0.09	-2.85598E-001	-3.49167E-001	-3.17383E-001	3.15899E-006	-3.22081E-006	6.37980E-006	-3.41000E-001	3.42706E-004	7	..........a	-327.68
	18	0.095	-2.83584E-001	-3.47171E-001	-3.15378E-001	3.15939E-006	-3.21981E-006	6.37920E-006	-3.39000E-001	2.69373E-004	7	..........a	-327.68
	19	0.1	-2.81608E-001	-3.45121E-001	-3.13364E-001	3.15773E-006	-3.21601E-006	6.37374E-006	-3.37000E-001	3.12706E-004	7	..........a	-327.68
	20	0.105	-2.79598E-001	-3.43211E-001	-3.11404E-001	3.16386E-006	-3.20814E-006	6.37200E-006	-3.35000E-001	3.46039E-004	7	..........a	-327.68
	21	0.11	-2.77631E-001	-3.41154E-001	-3.09393E-001	3.16546E-006	-3.20894E-006	6.37440E-006	-3.33000E-001	2.89373E-004	7	..........a	-327.68
	22	0.115	-2.75621E-001	-3.39188E-001	-3.07404E-001	3.17153E-006	-3.20481E-006	6.37634E-006	-3.31000E-001	2.86039E-004	7	..........a	-327.68
	23	0.12	-2.73601E-001	-3.37178E-001	-3.05389E-001	3.16973E-006	-3.20247E-006	6.37220E-006	-3.29000E-001	3.49373E-004	7	..........a	-327.68
	24	0.125	-2.71634E-001	-3.35171E-001	-3.03403E-001	3.17273E-006	-3.19941E-006	6.37214E-006	-3.27000E-001	3.56039E-004	7	..........a	-327.68
	25	0.13	-2.69657E-001	-3.33151E-001	-3.01404E-001	3.17239E-006	-3.19647E-006	6.36887E-006	-3.25000E-001	3.19373E-004	7	..........a	-327.68
	26	0.135	-2.67598E-001	-3.31148E-001	-2.99373E-001	3.17266E-006	-3.19561E-006	6.36827E-006	-3.23000E-001	3.56039E-004	7	..........a	-327.68
	27	0.14	-2.65628E-001	-3.29181E-001	-2.97404E-001	3.18106E-006	-3.19327E-006	6.37434E-006	-3.21000E-001	3.36039E-004	7	..........a	-327.68
	28	0.145	-2.63668E-001	-3.27171E-001	-2.95419E-001	3.18340E-006	-3.19374E-006	6.37714E-006	-3.19000E-001	3.39373E-004	7	..........a	-327.68
	29	0.15	-2.61641E-001	-3.25161E-001	-2.93401E-001	3.18140E-006	-3.18661E-006	6.36800E-006	-3.17000E-001	3.19373E-004	7	..........a	-327.68
	30	0.155	-2.59638E-001	-3.23154E-001	-2.91396E-001	3.18926E-006	-3.18634E-006	6.37560E-006	-3.15000E-001	3.22706E-004	7	..........a	-327.68
	31	0.16	-2.57634E-001	-3.21161E-001	-2.89398E-001	3.19333E-006	-3.18667E-006	6.38000E-006	-3.13000E-001	3.06039E-004	7	..........a	-327.68
	32	0.165	-2.55661E-001	-3.19181E-001	-2.87421E-001	3.19780E-006	-3.18447E-006	6.38227E-006	-3.11000E-001	3.22706E-004	7	..........a	-327.68
	33	0.17	-2.53661E-001	-3.17124E-001	-2.85393E-001	3.19940E-006	-3.18841E-006	6.38780E-006	-3.09000E-001	3.12706E-004	7	..........a	-327.68
	34	0.175	-2.51694E-001	-3.15181E-001	-2.83437E-001	3.20360E-006	-3.18140E-006	6.38500E-006	-3.07000E-001	2.79373E-004	7	..........a	-327.68
	35	0.18	-2.49654E-001	-3.13144E-001	-2.81399E-001	3.20547E-006	-3.18507E-006	6.39054E-006	-3.05000E-001	2.89373E-004	7	..........a	-327.68
	36	0.185	-2.47651E-001	-3.11118E-001	-2.79384E-001	3.21033E-006	-3.18287E-006	6.39320E-006	-3.03000E-001	3.36039E-004	7	..........a	-327.68
	37	0.19	-2.45661E-001	-3.09148E-001	-2.77404E-001	3.21447E-006	-3.18147E-006	6.39594E-006	-3.01000E-001	3.42706E-004	7	..........a	-327.68
	38	0.195	-2.43644E-001	-3.07178E-001	-2.75411E-001	3.22160E-006	-3.18127E-006	6.40287E-006	-2.99000E-001	2.96039E-004	7	..........a	-327.68
	39	0.2	-2.41654E-001	-3.05161E-001	-2.73408E-001	3.22127E-006	-3.17834E-006	6.39961E-006	-2.97000E-001	2.92706E-004	7	..........a	-327.68
	40	0.205	-2.39708E-001	-3.03191E-001	-2.71449E-001	3.22560E-006	-3.18127E-006	6.40687E-006	-2.95000E-001	3.32706E-004	7	..........a	-327.68
	41	0.21	-2.37694E-001	-3.01171E-001	-2.69433E-001	3.23047E-006	-3.18194E-006	6.41241E-006	-2.93000E-001	3.06039E-004	7	..........a	-327.68
	42	0.215	-2.35641E-001	-2.99158E-001	-2.67399E-001	3.23060E-006	-3.18261E-006	6.41321E-006	-2.91000E-001	3.06039E-004	7	..........a	-327.68
	43	0.22	-2.33651E-001	-2.97161E-001	-2.65406E-001	3.23614E-006	-3.17760E-006	6.41374E-006	-2.89000E-001	3.06039E-004	7	..........a	-327.68
	44	0.225	-2.31731E-001	-2.95148E-001	-2.63439E-001	3.24020E-006	-3.17960E-006	6.41981E-006	-2.87000E-001	3.52706E-004	7	..........a	-327.68
	45	0.23	-2.29711E-001	-2.93121E-001	-2.61416E-001	3.23974E-006	-3.18014E-006	6.41987E-006	-2.85000E-001	3.22706E-004	7	..........a	-327.68
	46	0.235	-2.27668E-001	-2.91171E-001	-2.59419E-001	3.24454E-006	-3.17767E-006	6.42221E-006	-2.83000E-001	3.36039E-004	7	..........a	-327.68
	47	0.24	-2.25624E-001	-2.89111E-001	-2.57368E-001	3.24407E-006	-3.17267E-006	6.41674E-006	-2.81000E-001	3.32706E-004	7	..........a	-327.68
	48	0.245	-2.23658E-001	-2.87154E-001	-2.55406E-001	3.25140E-006	-3.17647E-006	6.42788E-006	-2.79000E-001	2.92706E-004	7	..........a	-327.68
	49	0.25	-2.21768E-001	-2.85158E-001	-2.53463E-001	3.24720E-006	-3.17594E-006	6.42314E-006	-2.77000E-001	3.29373E-004	7	..........a	-327.68
	50	0.255	-2.19638E-001	-2.83087E-001	-2.51363E-001	3.25307E-006	-3.17007E-006	6.42314E-006	-2.75000E-001	3.19373E-004	7	..........a	-327.68
	51	0.26	-2.17628E-001	-2.81141E-001	-2.49384E-001	3.25321E-006	-3.17174E-006	6.42494E-006	-2.73000E-001	2.96039E-004	7	..........a	-327.68
	52	0.265	-2.15661E-001	-2.79178E-001	-2.47419E-001	3.25321E-006	-3.16400E-006	6.41721E-006	-2.71000E-001	3.06039E-004	7	..........a	-327.68
	53	0.27	-2.13704E-001	-2.77158E-001	-2.45431E-001	3.25601E-006	-3.16740E-006	6.42341E-006	-2.69000E-001	3.26039E-004	7	..........a	-327.68
	54	0.275	-2.11704E-001	-2.75121E-001	-2.43413E-001	3.25647E-006	-3.16027E-006	6.41674E-006	-2.67000E-001	3.32706E-004	7	..........a	-327.68
	55	0.28	-2.09678E-001	-2.73134E-001	-2.41406E-001	3.25747E-006	-3.16207E-006	6.41954E-006	-2.65000E-001	2.86039E-004	7	..........a	-327.68
	56	0.285	-2.07694E-001	-2.71168E-001	-2.39431E-001	3.25454E-006	-3.15867E-006	6.41321E-006	-2.63000E-001	3.19373E-004	7	..........a	-327.68
	57	0.29	-2.05664E-001	-2.69141E-001	-2.37403E-001	3.25854E-006	-3.15447E-006	6.41301E-006	-2.61000E-001	3.09373E-004	7	..........a	-327.68
	58	0.295	-2.03681E-001	-2.67084E-001	-2.35383E-001	3.25574E-006	-3.15640E-006	6.41214E-006	-2.59000E-001	2.89373E-004	7	..........a	-327.68
	59	0.3	-2.01704E-001	-2.65111E-001	-2.33408E-001	3.25661E-006	-3.15100E-006	6.40761E-006	-2.57000E-001	2.96039E-004	7	..........a	-327.68
	60	0.305	-1.99698E-001	-2.63148E-001	-2.31423E-001	3.25634E-006	-3.14393E-006	6.40027E-006	-2.55000E-001	3.02706E-004	7	..........a	-327.68
	61	0.31	-1.97668E-001	-2.61121E-001	-2.29394E-001	3.25607E-006	-3.14307E-006	6.39914E-006	-2.53000E-001	3.02706E-004	7	..........a	-327.68
	62	0.315	-1.95674E-001	-2.59084E-001	-2.27379E-001	3.25301E-006	-3.14320E-006	6.39621E-006	-2.51000E-001	3.02706E-004	7	..........a	-327.68
	63	0.32	-1.93681E-001	-2.57134E-001	-2.25408E-001	3.25554E-006	-3.13620E-006	6.39174E-006	-2.49000E-001	3.19373E-004	7	..........a	-327.68
	64	0.325	-1.91758E-001	-2.55171E-001	-2.23464E-001	3.25894E-006	-3.13687E-006	6.39581E-006	-2.47000E-001	3.32706E-004	7	..........a	-327.68
	65	0.33	-1.89674E-001	-2.53148E-001	-2.21411E-001	3.25327E-006	-3.13120E-006	6.38447E-006	-2.45000E-001	2.89373E-004	7	..........a	-327.68
	66	0.335	-1.87708E-001	-2.51134E-001	-2.19421E-001	3.25454E-006	-3.13013E-006	6.38467E-006	-2.43000E-001	3.09373E-004	7	..........a	-327.68
	67	0.34	-1.85718E-001	-2.49131E-001	-2.17424E-001	3.25187E-006	-3.12333E-006	6.37520E-006	-2.41000E-001	3.06039E-004	7	..........a	-327.68
	68	0.345	-1.83661E-001	-2.47154E-001	-2.15408E-001	3.25054E-006	-3.12586E-006	6.37640E-006	-2.39000E-001	3.52706E-004	7	..........a	-327.68
	69	0.35	-1.81664E-001	-2.45144E-001	-2.13404E-001	3.24654E-006	-3.12233E-006	6.36887E-006	-2.37000E-001	2.92706E-004	7	..........a	-327.68
	70	0.355	-1.79631E-001	-2.43108E-001	-2.11369E-001	3.25274E-006	-3.11573E-006	6.36847E-006	-2.35000E-001	2.96039E-004	7	..........a	-327.68
	71	0.36	-1.77664E-001	-2.41104E-001	-2.09384E-001	3.24754E-006	-3.11880E-006	6.36633E-006	-2.33000E-001	2.99373E-004	7	..........a	-327.68
	72	0.365	-1.75688E-001	-2.39168E-001	-2.07428E-001	3.24774E-006	-3.11073E-006	6.35847E-006	-2.31000E-001	3.42706E-004	7	..........a	-327.68
	73	0.37	-1.73671E-001	-2.37141E-001	-2.05406E-001	3.24920E-006	-3.10979E-006	6.35900E-006	-2.29000E-001	3.29373E-004	7	..........a	-327.68
	74	0.375	-1.71671E-001	-2.35158E-001	-2.03414E-001	3.25060E-006	-3.10973E-006	6.36033E-006	-2.27000E-001	3.19373E-004	7	..........a	-327.68
	75	0.38	-1.69691E-001	-2.33131E-001	-2.01411E-001	3.24974E-006	-3.10739E-006	6.35713E-006	-2.25000E-001	3.12706E-004	7	..........a	-327.68
	76	0.385	-1.67728E-001	-2.31101E-001	-1.99414E-001	3.24474E-006	-3.10353E-006	6.34826E-006	-2.23000E-001	3.19373E-004	7	..........a	-327.68
	77	0.39	-1.65694E-001	-2.29121E-001	-1.97408E-001	3.25381E-006	-3.09986E-006	6.35367E-006	-2.21000E-001	2.99373E-004	7	..........a	-327.68
	78	0.395	-1.63641E-001	-2.27131E-001	-1.95386E-001	3.24614E-006	-3.10126E-006	6.34740E-006	-2.19000E-001	3.02706E-004	7	..........a	-327.68
	79	0.4	-1.61694E-001	-2.25154E-001	-1.93424E-001	3.24534E-006	-3.09879E-006	6.34413E-006	-2.17000E-001	2.92706E-004	7	..........a	-327.68
	80	0.405	-1.59704E-001	-2.23134E-001	-1.91419E-001	3.24774E-006	-3.09393E-006	6.34166E-006	-2.15000E-001	3.22706E-004	7	..........a	-327.68
	81	0.41	-1.57694E-001	-2.21151E-001	-1.89423E-001	3.24947E-006	-3.09626E-006	6.34573E-006	-2.13000E-001	2.66039E-004	7	..........a	-327.68
	82	0.415	-1.55651E-001	-2.19124E-001	-1.87388E-001	3.24600E-006	-3.09733E-006	6.34333E-006	-2.11000E-001	2.96039E-004	7	..........a	-327.68
	83	0.42	-1.53611E-001	-2.17084E-001	-1.85348E-001	3.25401E-006	-3.09053E-006	6.34453E-006	-2.09000E-001	3.46039E-004	7	..........a	-327.68
	84	0.425	-1.51668E-001	-2.15204E-001	-1.83436E-001	3.25040E-006	-3.09039E-006	6.34080E-006	-2.07000E-001	2.96039E-004	7	..........a	-327.68
	85	0.43	-1.49694E-001	-2.13181E-001	-1.81438E-001	3.24980E-006	-3.09179E-006	6.34160E-006	-2.05000E-001	2.72706E-004	7	..........a	-327.68
	86	0.435	-1.47681E-001	-2.11114E-001	-1.79398E-001	3.25327E-006	-3.08946E-006	6.34273E-006	-2.03000E-001	3.19373E-004	7	..........a	-327.68
	87	0.44	-1.45641E-001	-2.09094E-001	-1.77368E-001	3.25794E-006	-3.08953E-006	6.34747E-006	-2.01000E-001	3.22706E-004	7	..........a	-327.68
	88	0.445	-1.43714E-001	-2.07111E-001	-1.75413E-001	3.25627E-006	-3.09053E-006	6.34680E-006	-1.99000E-001	3.09373E-004	7	..........a	-327.68
	89	0.45	-1.41704E-001	-2.05124E-001	-1.73414E-001	3.25821E-006	-3.08766E-006	6.34586E-006	-1.97000E-001	3.36039E-004	7	..........a	-327.68
	90	0.455	-1.39661E-001	-2.03124E-001	-1.71393E-001	3.26147E-006	-3.08706E-006	6.34853E-006	-1.95000E-001	3.22706E-004	7	..........a	-327.68
	91	0.46	-1.37614E-001	-2.01131E-001	-1.69373E-001	3.26307E-006	-3.08472E-006	6.34780E-006	-1.93000E-001	3.02706E-004	7	..........a	-327.68
	92	0.465	-1.35668E-001	-1.99194E-001	-1.67431E-001	3.26081E-006	-3.09013E-006	6.35093E-006	-1.91000E-001	3.16039E-004	7	..........a	-327.68
	93	0.47	-1.33638E-001	-1.97164E-001	-1.65401E-001	3.26901E-006	-3.08733E-006	6.35633E-006	-1.89000E-001	3.19373E-004	7	..........a	-327.68
	94	0.475	-1.31664E-001	-1.95184E-001	-1.63424E-001	3.26894E-006	-3.08893E-006	6.35787E-006	-1.87000E-001	3.19373E-004	7	..........a	-327.68
	95	0.48	-1.29691E-001	-1.93124E-001	-1.61408E-001	3.26787E-006	-3.08566E-006	6.35353E-006	-1.85000E-001	3.26039E-004	7	..........a	-327.68
	96	0.485	-1.27698E-001	-1.91211E-001	-1.59454E-001	3.27421E-006	-3.08919E-006	6.36340E-006	-1.83000E-001	3.32706E-004	7	..........a	-327.68
	97	0.49	-1.25648E-001	-1.89148E-001	-1.57398E-001	3.27874E-006	-3.08799E-006	6.36673E-006	-1.81000E-001	2.99373E-004	7	..........a	-327.68
	98	0.495	-1.23668E-001	-1.87174E-001	-1.55421E-001	3.28048E-006	-3.09053E-006	6.37100E-006	-1.79000E-001	2.79373E-004	7	..........a	-327.68
	99	0.5	-1.21701E-001	-1.85161E-001	-1.53431E-001	3.28308E-006	-3.09119E-006	6.37427E-006	-1.77000E-001	2.96039E-004	7	..........a	-327.68
	100	0.505	-1.19648E-001	-1.83148E-001	-1.51398E-001	3.28881E-006	-3.09019E-006	6.37900E-006	-1.75000E-001	3.26039E-004	7	..........a	-327.68
