EXPLAIN
TAG	SQUARE_WAVE
TITLE	LABEL	Square Wave Voltammetry	Test Identifier
DATE	LABEL	8/10/2020	Date
TIME	LABEL	15:10:15	Time
NOTES	NOTES	1	Notes...
	
PSTAT	PSTAT	REF600-24079	Potentiostat
VINIT	QUANT	-3.50000E-001	Initial E (V)
VFINAL	QUANT	-1.50000E-001	Final E (V)
STEPSIZE	QUANT	2.00000E+000	Step Size (mV)
TIMERRES	QUANT	3.33340E-005	&Timer Resolution
FREQUENCY	QUANT	2.50000E+002	Frequency (Hz)
PULSESIZE	QUANT	2.50000E+001	Pulse Size E (mV)
PULSEON	QUANT	4.00000E-003	Pulse &Time (s)
NOISEREJECT	TOGGLE	F	Noise Rejection
AREA	QUANT	2.00000E-002	Sample Area (cm^2)
IMODE	SELECTOR	1	I/E Range Mode
IRANGE	QUANT	1.00000E-002	Max Current (mA)
EQDELAY	IQUANT	10	Equil. Time (s)
IRCOMP	SELECTOR	0	IRComp
PFCOR	QUANT	5.00000E+001	PF Corr. (ohm)
CYCLES	IQUANT	101	C&ycles (#)
ELECTRODETYPE	SELECTOR	0	Electrode Type
STRIPPING	TOGGLE	F	Used for Stripping
POLARITY	TOGGLE	F	Signal Polarity
LINEFREQ	IQUANT	60	Line Frequency (Hz)
INTPERIOD	QUANT	3.3334E-005	Integration Period (s)
SEQUENCER	TOGGLE	TRUE	Run as Sequence
PSTATMODEL	IQUANT	4	Pstat Model
PSTATSECTION	LABEL	REF600-24079	Pstat Section
PSTATSERIALNO	LABEL	24079	Pstat Serial Number
CTRLMODE	IQUANT	1	Control Mode
ELECTROMETER	IQUANT	0	RE=0 or CS=1
IESTAB	IQUANT	2	I/E Stability
CASPEED	IQUANT	6	Control Amp Speed
CONVENTION	IQUANT	1	Current Convention
ICHRANGE	IQUANT	2	Ich Range
ICHRANGEMODE	TOGGLE	F	Ich Auto Range
ICHOFFSETENABLE	TOGGLE	F	Ich Offset Enable
ICHOFFSET	QUANT	0	Ich Offset (V)
ICHFILTER	IQUANT	2	Ich Filter
VCHRANGE	IQUANT	2	Vch Range
VCHRANGEMODE	TOGGLE	F	Vch Auto Range
VCHOFFSETENABLE	TOGGLE	F	Vch Offset Enable
VCHOFFSET	QUANT	0	Vch Offset (V)
VCHFILTER	IQUANT	1	Vch Filter
ACHRANGE	IQUANT	2	Ach Range
ACHOFFSETENABLE	TOGGLE	F	Ach Offset Enable
ACHOFFSET	QUANT	0	Ach Offset (V)
ACHFILTER	IQUANT	1	Ach Filter
IERANGELOWERLIMIT	IQUANT	1	I/E Range Lower Limit
IERANGEMODE	TOGGLE	F	I/E AutoRange
IERANGE	IQUANT	7	I/E Range
POSFEEDENABLE	TOGGLE	F	Positive Feedback IR Comp
POSFEEDRESISTANCE	QUANT	0	Positive Feedback Resistance (ohm)
ACHSELECT	IQUANT	0	Ach Select
SENSECABLEID	IQUANT	13	Sense Cable ID
PWRCABLEID	IQUANT	13	Power Cable ID
DCCALDATE	LABEL	6/30/2020	DC Calibration Date
ACCALDATE	LABEL	6/30/2020	AC Calibration Date
THERMOSELECT	IQUANT	1	Thermo Select
FRAMEWORKVERSION	LABEL	7.8.2	Framework Version
INSTRUMENTVERSION	LABEL	4.40	Instrument Version
CURVE	TABLE	101
	Pt	T	Vfwd	Vrev	Vstep	Ifwd	Irev	Idif	Sig	Ach	IERange	Over	Temp
	#	s	V	V	V	A	A	A	V	V	#	bits	deg C
	0	0.004	-3.22883E-001	-3.78303E-001	-3.50593E-001	-1.01893E-008	-6.38156E-006	6.37137E-006	-3.75000E-001	3.95206E-004	7	..........a	-327.68
	1	0.008	-3.15266E-001	-3.76320E-001	-3.45793E-001	7.15887E-006	-7.37028E-006	1.45291E-005	-3.73000E-001	3.24373E-004	7	..........a	-327.68
	2	0.012	-3.13391E-001	-3.74241E-001	-3.43816E-001	7.32239E-006	-7.34969E-006	1.46721E-005	-3.71000E-001	3.49373E-004	7	..........a	-327.68
	3	0.016	-3.11307E-001	-3.72303E-001	-3.41805E-001	7.33106E-006	-7.33185E-006	1.46629E-005	-3.69000E-001	3.32706E-004	7	..........a	-327.68
	4	0.02	-3.09366E-001	-3.70228E-001	-3.39797E-001	7.34373E-006	-7.31710E-006	1.46608E-005	-3.67000E-001	3.11873E-004	7	..........a	-327.68
	5	0.024	-3.07387E-001	-3.68282E-001	-3.37835E-001	7.34540E-006	-7.31002E-006	1.46554E-005	-3.65000E-001	2.91039E-004	7	..........a	-327.68
	6	0.028	-3.05412E-001	-3.66295E-001	-3.35853E-001	7.35165E-006	-7.29402E-006	1.46457E-005	-3.63000E-001	3.86873E-004	7	..........a	-327.68
	7	0.032	-3.03320E-001	-3.64328E-001	-3.33824E-001	7.34748E-006	-7.28860E-006	1.46361E-005	-3.61000E-001	3.16039E-004	7	..........a	-327.68
	8	0.036	-3.01424E-001	-3.62237E-001	-3.31830E-001	7.35390E-006	-7.27993E-006	1.46338E-005	-3.59000E-001	3.99373E-004	7	..........a	-327.68
	9	0.04	-2.99608E-001	-3.60324E-001	-3.29966E-001	7.35573E-006	-7.27718E-006	1.46329E-005	-3.57000E-001	3.99373E-004	7	..........a	-327.68
	10	0.044	-2.97441E-001	-3.58245E-001	-3.27843E-001	7.35540E-006	-7.26826E-006	1.46237E-005	-3.55000E-001	3.24373E-004	7	..........a	-327.68
	11	0.048	-2.95341E-001	-3.56291E-001	-3.25816E-001	7.35498E-006	-7.26318E-006	1.46182E-005	-3.53000E-001	3.70206E-004	7	..........a	-327.68
	12	0.052	-2.93370E-001	-3.54257E-001	-3.23814E-001	7.35040E-006	-7.25651E-006	1.46069E-005	-3.51000E-001	3.41039E-004	7	..........a	-327.68
	13	0.056	-2.91349E-001	-3.52307E-001	-3.21828E-001	7.35648E-006	-7.25526E-006	1.46117E-005	-3.49000E-001	3.36873E-004	7	..........a	-327.68
	14	0.06	-2.89345E-001	-3.50287E-001	-3.19816E-001	7.35606E-006	-7.25109E-006	1.46072E-005	-3.47000E-001	3.11873E-004	7	..........a	-327.68
	15	0.064	-2.87353E-001	-3.48274E-001	-3.17814E-001	7.35790E-006	-7.24534E-006	1.46032E-005	-3.45000E-001	3.24373E-004	7	..........a	-327.68
	16	0.068	-2.85358E-001	-3.46337E-001	-3.15847E-001	7.35540E-006	-7.23943E-006	1.45948E-005	-3.43000E-001	3.53539E-004	7	..........a	-327.68
	17	0.072	-2.83358E-001	-3.44207E-001	-3.13783E-001	7.35890E-006	-7.23492E-006	1.45938E-005	-3.41000E-001	3.24373E-004	7	..........a	-327.68
	18	0.076	-2.81403E-001	-3.42299E-001	-3.11851E-001	7.35940E-006	-7.23459E-006	1.45940E-005	-3.39000E-001	3.70206E-004	7	..........a	-327.68
	19	0.08	-2.79378E-001	-3.40312E-001	-3.09845E-001	7.36181E-006	-7.23617E-006	1.45980E-005	-3.37000E-001	3.45206E-004	7	..........a	-327.68
	20	0.084	-2.77433E-001	-3.38278E-001	-3.07855E-001	7.36132E-006	-7.22801E-006	1.45893E-005	-3.35000E-001	3.32706E-004	7	..........a	-327.68
	21	0.088	-2.75399E-001	-3.36241E-001	-3.05820E-001	7.36265E-006	-7.22734E-006	1.45900E-005	-3.33000E-001	3.24373E-004	7	..........a	-327.68
	22	0.092	-2.73487E-001	-3.34295E-001	-3.03891E-001	7.36957E-006	-7.22842E-006	1.45980E-005	-3.31000E-001	3.07706E-004	7	..........a	-327.68
	23	0.096	-2.71437E-001	-3.32249E-001	-3.01843E-001	7.36657E-006	-7.22451E-006	1.45911E-005	-3.29000E-001	3.03539E-004	7	..........a	-327.68
	24	0.1	-2.69395E-001	-3.30328E-001	-2.99862E-001	7.37123E-006	-7.22151E-006	1.45927E-005	-3.27000E-001	3.11873E-004	7	..........a	-327.68
	25	0.104	-2.67362E-001	-3.28203E-001	-2.97783E-001	7.37498E-006	-7.21967E-006	1.45947E-005	-3.25000E-001	3.53539E-004	7	..........a	-327.68
	26	0.108	-2.65412E-001	-3.26287E-001	-2.95849E-001	7.37632E-006	-7.22084E-006	1.45972E-005	-3.23000E-001	3.45206E-004	7	..........a	-327.68
	27	0.112	-2.63374E-001	-3.24178E-001	-2.93776E-001	7.37948E-006	-7.22242E-006	1.46019E-005	-3.21000E-001	3.28539E-004	7	..........a	-327.68
	28	0.116	-2.61382E-001	-3.22291E-001	-2.91837E-001	7.38015E-006	-7.22017E-006	1.46003E-005	-3.19000E-001	2.91039E-004	7	..........a	-327.68
	29	0.12	-2.59416E-001	-3.20233E-001	-2.89824E-001	7.38232E-006	-7.22034E-006	1.46027E-005	-3.17000E-001	2.95206E-004	7	..........a	-327.68
	30	0.124	-2.57441E-001	-3.18233E-001	-2.87837E-001	7.38532E-006	-7.22167E-006	1.46070E-005	-3.15000E-001	3.82706E-004	7	..........a	-327.68
	31	0.128	-2.55491E-001	-3.16178E-001	-2.85835E-001	7.39599E-006	-7.22576E-006	1.46217E-005	-3.13000E-001	3.36873E-004	7	..........a	-327.68
	32	0.132	-2.53424E-001	-3.14312E-001	-2.83868E-001	7.39174E-006	-7.22142E-006	1.46132E-005	-3.11000E-001	3.03539E-004	7	..........a	-327.68
	33	0.136	-2.51483E-001	-3.12270E-001	-2.81876E-001	7.39790E-006	-7.22067E-006	1.46186E-005	-3.09000E-001	3.28539E-004	7	..........a	-327.68
	34	0.14	-2.49499E-001	-3.10303E-001	-2.79901E-001	7.40265E-006	-7.22126E-006	1.46239E-005	-3.07000E-001	3.45206E-004	7	..........a	-327.68
	35	0.144	-2.47483E-001	-3.08137E-001	-2.77810E-001	7.40765E-006	-7.22317E-006	1.46308E-005	-3.05000E-001	3.41039E-004	7	..........a	-327.68
	36	0.148	-2.45424E-001	-3.06266E-001	-2.75845E-001	7.41041E-006	-7.22709E-006	1.46375E-005	-3.03000E-001	2.95206E-004	7	..........a	-327.68
	37	0.152	-2.43453E-001	-3.04274E-001	-2.73864E-001	7.41257E-006	-7.21901E-006	1.46316E-005	-3.01000E-001	3.78539E-004	7	..........a	-327.68
	38	0.156	-2.41420E-001	-3.02241E-001	-2.71830E-001	7.41724E-006	-7.22226E-006	1.46395E-005	-2.99000E-001	3.28539E-004	7	..........a	-327.68
	39	0.16	-2.39470E-001	-3.00207E-001	-2.69839E-001	7.41816E-006	-7.22901E-006	1.46472E-005	-2.97000E-001	3.07706E-004	7	..........a	-327.68
	40	0.164	-2.37503E-001	-2.98195E-001	-2.67849E-001	7.42866E-006	-7.22742E-006	1.46561E-005	-2.95000E-001	3.57706E-004	7	..........a	-327.68
	41	0.168	-2.35466E-001	-2.96228E-001	-2.65847E-001	7.42532E-006	-7.22251E-006	1.46478E-005	-2.93000E-001	3.03539E-004	7	..........a	-327.68
	42	0.172	-2.33428E-001	-2.94274E-001	-2.63851E-001	7.43149E-006	-7.22126E-006	1.46527E-005	-2.91000E-001	3.49373E-004	7	..........a	-327.68
	43	0.176	-2.31391E-001	-2.92195E-001	-2.61793E-001	7.43424E-006	-7.22784E-006	1.46621E-005	-2.89000E-001	2.99373E-004	7	..........a	-327.68
	44	0.18	-2.29466E-001	-2.90241E-001	-2.59853E-001	7.43933E-006	-7.22126E-006	1.46606E-005	-2.87000E-001	3.82706E-004	7	..........a	-327.68
	45	0.184	-2.27499E-001	-2.88237E-001	-2.57868E-001	7.44016E-006	-7.22342E-006	1.46636E-005	-2.85000E-001	3.32706E-004	7	..........a	-327.68
	46	0.188	-2.25487E-001	-2.86149E-001	-2.55818E-001	7.44066E-006	-7.22334E-006	1.46640E-005	-2.83000E-001	2.78539E-004	7	..........a	-327.68
	47	0.192	-2.23537E-001	-2.84183E-001	-2.53860E-001	7.44558E-006	-7.22075E-006	1.46663E-005	-2.81000E-001	3.20206E-004	7	..........a	-327.68
	48	0.196	-2.21474E-001	-2.82166E-001	-2.51820E-001	7.44708E-006	-7.22075E-006	1.46678E-005	-2.79000E-001	2.99373E-004	7	..........a	-327.68
	49	0.2	-2.19512E-001	-2.80203E-001	-2.49858E-001	7.44899E-006	-7.21775E-006	1.46667E-005	-2.77000E-001	3.57706E-004	7	..........a	-327.68
	50	0.204	-2.17474E-001	-2.78158E-001	-2.47816E-001	7.44674E-006	-7.21409E-006	1.46608E-005	-2.75000E-001	3.24373E-004	7	..........a	-327.68
	51	0.208	-2.15478E-001	-2.76170E-001	-2.45824E-001	7.45208E-006	-7.21000E-006	1.46621E-005	-2.73000E-001	3.53539E-004	7	..........a	-327.68
	52	0.212	-2.13453E-001	-2.74132E-001	-2.43793E-001	7.45033E-006	-7.21034E-006	1.46607E-005	-2.71000E-001	3.24373E-004	7	..........a	-327.68
	53	0.216	-2.11491E-001	-2.72145E-001	-2.41818E-001	7.45099E-006	-7.20642E-006	1.46574E-005	-2.69000E-001	3.28539E-004	7	..........a	-327.68
	54	0.22	-2.09533E-001	-2.70195E-001	-2.39864E-001	7.45016E-006	-7.20342E-006	1.46536E-005	-2.67000E-001	3.78539E-004	7	..........a	-327.68
	55	0.224	-2.07549E-001	-2.68241E-001	-2.37895E-001	7.44866E-006	-7.20225E-006	1.46509E-005	-2.65000E-001	3.57706E-004	7	..........a	-327.68
	56	0.228	-2.05524E-001	-2.66174E-001	-2.35849E-001	7.45108E-006	-7.19617E-006	1.46472E-005	-2.63000E-001	3.28539E-004	7	..........a	-327.68
	57	0.232	-2.03428E-001	-2.64228E-001	-2.33828E-001	7.44399E-006	-7.19442E-006	1.46384E-005	-2.61000E-001	3.32706E-004	7	..........a	-327.68
	58	0.236	-2.01528E-001	-2.62128E-001	-2.31828E-001	7.44858E-006	-7.18583E-006	1.46344E-005	-2.59000E-001	3.45206E-004	7	..........a	-327.68
	59	0.24	-1.99516E-001	-2.60199E-001	-2.29858E-001	7.44174E-006	-7.18225E-006	1.46240E-005	-2.57000E-001	3.82706E-004	7	..........a	-327.68
	60	0.244	-1.97549E-001	-2.58182E-001	-2.27866E-001	7.44174E-006	-7.17950E-006	1.46212E-005	-2.55000E-001	3.45206E-004	7	..........a	-327.68
	61	0.248	-1.95516E-001	-2.56278E-001	-2.25897E-001	7.44024E-006	-7.17767E-006	1.46179E-005	-2.53000E-001	3.49373E-004	7	..........a	-327.68
	62	0.252	-1.93516E-001	-2.54191E-001	-2.23853E-001	7.43874E-006	-7.16900E-006	1.46077E-005	-2.51000E-001	3.28539E-004	7	..........a	-327.68
	63	0.256	-1.91403E-001	-2.52220E-001	-2.21812E-001	7.43666E-006	-7.16875E-006	1.46054E-005	-2.49000E-001	3.32706E-004	7	..........a	-327.68
	64	0.26	-1.89487E-001	-2.50124E-001	-2.19805E-001	7.43199E-006	-7.16275E-006	1.45947E-005	-2.47000E-001	3.11873E-004	7	..........a	-327.68
	65	0.264	-1.87487E-001	-2.48216E-001	-2.17851E-001	7.43499E-006	-7.15966E-006	1.45947E-005	-2.45000E-001	2.74373E-004	7	..........a	-327.68
	66	0.268	-1.85499E-001	-2.46287E-001	-2.15893E-001	7.42766E-006	-7.15608E-006	1.45837E-005	-2.43000E-001	3.41039E-004	7	..........a	-327.68
	67	0.272	-1.83474E-001	-2.44208E-001	-2.13841E-001	7.42757E-006	-7.14725E-006	1.45748E-005	-2.41000E-001	3.49373E-004	7	..........a	-327.68
	68	0.276	-1.81487E-001	-2.42224E-001	-2.11855E-001	7.42574E-006	-7.14508E-006	1.45708E-005	-2.39000E-001	3.11873E-004	7	..........a	-327.68
	69	0.28	-1.79428E-001	-2.40228E-001	-2.09828E-001	7.42157E-006	-7.13891E-006	1.45605E-005	-2.37000E-001	3.32706E-004	7	..........a	-327.68
	70	0.284	-1.77466E-001	-2.38208E-001	-2.07837E-001	7.41866E-006	-7.13791E-006	1.45566E-005	-2.35000E-001	3.74373E-004	7	..........a	-327.68
	71	0.288	-1.75403E-001	-2.36191E-001	-2.05797E-001	7.41624E-006	-7.13366E-006	1.45499E-005	-2.33000E-001	3.32706E-004	7	..........a	-327.68
	72	0.292	-1.73503E-001	-2.34241E-001	-2.03872E-001	7.41441E-006	-7.13183E-006	1.45462E-005	-2.31000E-001	3.41039E-004	7	..........a	-327.68
	73	0.296	-1.71499E-001	-2.32195E-001	-2.01847E-001	7.41191E-006	-7.13383E-006	1.45457E-005	-2.29000E-001	3.78539E-004	7	..........a	-327.68
	74	0.3	-1.69391E-001	-2.30233E-001	-1.99812E-001	7.41457E-006	-7.12491E-006	1.45395E-005	-2.27000E-001	3.74373E-004	7	..........a	-327.68
	75	0.304	-1.67420E-001	-2.28208E-001	-1.97814E-001	7.40899E-006	-7.12041E-006	1.45294E-005	-2.25000E-001	3.66039E-004	7	..........a	-327.68
	76	0.308	-1.65420E-001	-2.26216E-001	-1.95818E-001	7.40807E-006	-7.11432E-006	1.45224E-005	-2.23000E-001	3.24373E-004	7	..........a	-327.68
	77	0.312	-1.63445E-001	-2.24178E-001	-1.93812E-001	7.40607E-006	-7.11532E-006	1.45214E-005	-2.21000E-001	2.78539E-004	7	..........a	-327.68
	78	0.316	-1.61524E-001	-2.22245E-001	-1.91885E-001	7.40540E-006	-7.11149E-006	1.45169E-005	-2.19000E-001	3.91039E-004	7	..........a	-327.68
	79	0.32	-1.59366E-001	-2.20216E-001	-1.89791E-001	7.40682E-006	-7.11516E-006	1.45220E-005	-2.17000E-001	3.07706E-004	7	..........a	-327.68
	80	0.324	-1.57324E-001	-2.18249E-001	-1.87787E-001	7.40607E-006	-7.10932E-006	1.45154E-005	-2.15000E-001	3.49373E-004	7	..........a	-327.68
	81	0.328	-1.55445E-001	-2.16270E-001	-1.85858E-001	7.40140E-006	-7.10724E-006	1.45086E-005	-2.13000E-001	3.86873E-004	7	..........a	-327.68
	82	0.332	-1.53424E-001	-2.14270E-001	-1.83847E-001	7.39615E-006	-7.10841E-006	1.45046E-005	-2.11000E-001	3.16039E-004	7	..........a	-327.68
	83	0.336	-1.51441E-001	-2.12278E-001	-1.81860E-001	7.40557E-006	-7.10624E-006	1.45118E-005	-2.09000E-001	3.41039E-004	7	..........a	-327.68
	84	0.34	-1.49441E-001	-2.10328E-001	-1.79885E-001	7.39865E-006	-7.10291E-006	1.45016E-005	-2.07000E-001	3.07706E-004	7	..........a	-327.68
	85	0.344	-1.47453E-001	-2.08224E-001	-1.77839E-001	7.40332E-006	-7.09866E-006	1.45020E-005	-2.05000E-001	3.45206E-004	7	..........a	-327.68
	86	0.348	-1.45408E-001	-2.06287E-001	-1.75847E-001	7.39899E-006	-7.10199E-006	1.45010E-005	-2.03000E-001	2.74373E-004	7	..........a	-327.68
	87	0.352	-1.43433E-001	-2.04258E-001	-1.73845E-001	7.40132E-006	-7.09682E-006	1.44981E-005	-2.01000E-001	3.11873E-004	7	..........a	-327.68
	88	0.356	-1.41437E-001	-2.02291E-001	-1.71864E-001	7.40465E-006	-7.10332E-006	1.45080E-005	-1.99000E-001	3.49373E-004	7	..........a	-327.68
	89	0.36	-1.39433E-001	-2.00241E-001	-1.69837E-001	7.40432E-006	-7.10124E-006	1.45056E-005	-1.97000E-001	3.03539E-004	7	..........a	-327.68
	90	0.364	-1.37424E-001	-1.98212E-001	-1.67818E-001	7.40157E-006	-7.09982E-006	1.45014E-005	-1.95000E-001	3.07706E-004	7	..........a	-327.68
	91	0.368	-1.35424E-001	-1.96283E-001	-1.65853E-001	7.40299E-006	-7.10224E-006	1.45052E-005	-1.93000E-001	3.28539E-004	7	..........a	-327.68
	92	0.372	-1.33383E-001	-1.94274E-001	-1.63828E-001	7.40982E-006	-7.10024E-006	1.45101E-005	-1.91000E-001	3.61873E-004	7	..........a	-327.68
	93	0.376	-1.31412E-001	-1.92362E-001	-1.61887E-001	7.40674E-006	-7.09966E-006	1.45064E-005	-1.89000E-001	2.82706E-004	7	..........a	-327.68
	94	0.38	-1.29395E-001	-1.90220E-001	-1.59808E-001	7.40782E-006	-7.09741E-006	1.45052E-005	-1.87000E-001	2.82706E-004	7	..........a	-327.68
	95	0.384	-1.27487E-001	-1.88228E-001	-1.57858E-001	7.40857E-006	-7.10266E-006	1.45112E-005	-1.85000E-001	3.66039E-004	7	..........a	-327.68
	96	0.388	-1.25412E-001	-1.86241E-001	-1.55826E-001	7.41666E-006	-7.10457E-006	1.45212E-005	-1.83000E-001	3.24373E-004	7	..........a	-327.68
	97	0.392	-1.23437E-001	-1.84308E-001	-1.53872E-001	7.41866E-006	-7.10482E-006	1.45235E-005	-1.81000E-001	4.11873E-004	7	..........a	-327.68
	98	0.396	-1.21412E-001	-1.82216E-001	-1.51814E-001	7.41707E-006	-7.10674E-006	1.45238E-005	-1.79000E-001	3.49373E-004	7	..........a	-327.68
	99	0.4	-1.19470E-001	-1.80287E-001	-1.49878E-001	7.41841E-006	-7.10691E-006	1.45253E-005	-1.77000E-001	3.57706E-004	7	..........a	-327.68
	100	0.404	-1.17358E-001	-1.78208E-001	-1.47783E-001	7.42074E-006	-7.10916E-006	1.45299E-005	-1.75000E-001	3.49373E-004	7	..........a	-327.68
