EXPLAIN
TAG	SQUARE_WAVE
TITLE	LABEL	Square Wave Voltammetry	Test Identifier
DATE	LABEL	8/10/2020	Date
TIME	LABEL	20:46:08	Time
NOTES	NOTES	1	Notes...
	
PSTAT	PSTAT	REF600-24079	Potentiostat
VINIT	QUANT	-3.50000E-001	Initial E (V)
VFINAL	QUANT	-1.50000E-001	Final E (V)
STEPSIZE	QUANT	2.00000E+000	Step Size (mV)
TIMERRES	QUANT	3.33340E-005	&Timer Resolution
FREQUENCY	QUANT	7.50000E+001	Frequency (Hz)
PULSESIZE	QUANT	2.50000E+001	Pulse Size E (mV)
PULSEON	QUANT	1.33333E-002	Pulse &Time (s)
NOISEREJECT	TOGGLE	F	Noise Rejection
AREA	QUANT	2.00000E-002	Sample Area (cm^2)
IMODE	SELECTOR	1	I/E Range Mode
IRANGE	QUANT	1.00000E-003	Max Current (mA)
EQDELAY	IQUANT	10	Equil. Time (s)
IRCOMP	SELECTOR	0	IRComp
PFCOR	QUANT	5.00000E+001	PF Corr. (ohm)
CYCLES	IQUANT	101	C&ycles (#)
ELECTRODETYPE	SELECTOR	0	Electrode Type
STRIPPING	TOGGLE	F	Used for Stripping
POLARITY	TOGGLE	F	Signal Polarity
LINEFREQ	IQUANT	60	Line Frequency (Hz)
INTPERIOD	QUANT	3.3334E-005	Integration Period (s)
SEQUENCER	TOGGLE	TRUE	Run as Sequence
PSTATMODEL	IQUANT	4	Pstat Model
PSTATSECTION	LABEL	REF600-24079	Pstat Section
PSTATSERIALNO	LABEL	24079	Pstat Serial Number
CTRLMODE	IQUANT	1	Control Mode
ELECTROMETER	IQUANT	0	RE=0 or CS=1
IESTAB	IQUANT	2	I/E Stability
CASPEED	IQUANT	6	Control Amp Speed
CONVENTION	IQUANT	1	Current Convention
ICHRANGE	IQUANT	2	Ich Range
ICHRANGEMODE	TOGGLE	F	Ich Auto Range
ICHOFFSETENABLE	TOGGLE	F	Ich Offset Enable
ICHOFFSET	QUANT	0	Ich Offset (V)
ICHFILTER	IQUANT	2	Ich Filter
VCHRANGE	IQUANT	2	Vch Range
VCHRANGEMODE	TOGGLE	F	Vch Auto Range
VCHOFFSETENABLE	TOGGLE	F	Vch Offset Enable
VCHOFFSET	QUANT	0	Vch Offset (V)
VCHFILTER	IQUANT	2	Vch Filter
ACHRANGE	IQUANT	2	Ach Range
ACHOFFSETENABLE	TOGGLE	F	Ach Offset Enable
ACHOFFSET	QUANT	0	Ach Offset (V)
ACHFILTER	IQUANT	1	Ach Filter
IERANGELOWERLIMIT	IQUANT	1	I/E Range Lower Limit
IERANGEMODE	TOGGLE	F	I/E AutoRange
IERANGE	IQUANT	6	I/E Range
POSFEEDENABLE	TOGGLE	F	Positive Feedback IR Comp
POSFEEDRESISTANCE	QUANT	0	Positive Feedback Resistance (ohm)
ACHSELECT	IQUANT	0	Ach Select
SENSECABLEID	IQUANT	13	Sense Cable ID
PWRCABLEID	IQUANT	13	Power Cable ID
DCCALDATE	LABEL	6/30/2020	DC Calibration Date
ACCALDATE	LABEL	6/30/2020	AC Calibration Date
THERMOSELECT	IQUANT	1	Thermo Select
FRAMEWORKVERSION	LABEL	7.8.2	Framework Version
INSTRUMENTVERSION	LABEL	4.40	Instrument Version
CURVE	TABLE	101
	Pt	T	Vfwd	Vrev	Vstep	Ifwd	Irev	Idif	Sig	Ach	IERange	Over	Temp
	#	s	V	V	V	A	A	A	V	V	#	bits	deg C
	0	0.013333	-3.24887E-001	-3.87486E-001	-3.56187E-001	-8.26374E-008	-9.17429E-007	8.34791E-007	-3.75000E-001	3.87706E-004	6	..........a	-327.68
	1	0.026667	-3.07175E-001	-3.88618E-001	-3.47897E-001	5.47305E-007	-8.12785E-007	1.36009E-006	-3.73000E-001	3.46456E-004	6	.....h....a	-327.68
	2	0.04	-3.04592E-001	-3.86708E-001	-3.45650E-001	5.06227E-007	-7.76633E-007	1.28286E-006	-3.71000E-001	3.48956E-004	6	.....h....a	-327.68
	3	0.053333	-3.02605E-001	-3.84712E-001	-3.43658E-001	5.07440E-007	-7.65079E-007	1.27252E-006	-3.69000E-001	3.33956E-004	6	.....h....a	-327.68
	4	0.066667	-3.00598E-001	-3.82717E-001	-3.41658E-001	5.10636E-007	-7.56278E-007	1.26691E-006	-3.67000E-001	3.45206E-004	6	.....h....a	-327.68
	5	0.08	-2.98575E-001	-3.80693E-001	-3.39634E-001	5.13786E-007	-7.47612E-007	1.26140E-006	-3.65000E-001	3.81456E-004	6	.....h....a	-327.68
	6	0.093333	-2.96612E-001	-3.78686E-001	-3.37649E-001	5.14771E-007	-7.38181E-007	1.25295E-006	-3.63000E-001	3.47706E-004	6	.....h....a	-327.68
	7	0.106667	-2.94616E-001	-3.76705E-001	-3.35660E-001	5.14811E-007	-7.30235E-007	1.24505E-006	-3.61000E-001	3.48956E-004	6	.....h....a	-327.68
	8	0.12	-2.92616E-001	-3.74695E-001	-3.33655E-001	5.14206E-007	-7.23387E-007	1.23759E-006	-3.59000E-001	3.63956E-004	6	.....h....a	-327.68
	9	0.133333	-2.90660E-001	-3.72696E-001	-3.31678E-001	5.15799E-007	-7.17933E-007	1.23373E-006	-3.57000E-001	3.60206E-004	6	.....h....a	-327.68
	10	0.146667	-2.88640E-001	-3.70687E-001	-3.29663E-001	5.17899E-007	-7.12095E-007	1.22999E-006	-3.55000E-001	3.41456E-004	6	.....h....a	-327.68
	11	0.16	-2.86632E-001	-3.68700E-001	-3.27666E-001	5.17561E-007	-7.05557E-007	1.22312E-006	-3.53000E-001	3.28956E-004	6	.....h....a	-327.68
	12	0.173333	-2.84658E-001	-3.66690E-001	-3.25674E-001	5.18247E-007	-6.99066E-007	1.21731E-006	-3.51000E-001	3.35206E-004	6	.....h....a	-327.68
	13	0.186667	-2.82632E-001	-3.64685E-001	-3.23658E-001	5.18814E-007	-6.94270E-007	1.21308E-006	-3.49000E-001	3.68956E-004	6	.....h....a	-327.68
	14	0.2	-2.80660E-001	-3.62688E-001	-3.21674E-001	5.20554E-007	-6.89960E-007	1.21051E-006	-3.47000E-001	3.42706E-004	6	.....h....a	-327.68
	15	0.213333	-2.78672E-001	-3.60677E-001	-3.19675E-001	5.21122E-007	-6.84654E-007	1.20578E-006	-3.45000E-001	3.41456E-004	6	.....h....a	-327.68
	16	0.226667	-2.76676E-001	-3.58671E-001	-3.17673E-001	5.21879E-007	-6.79351E-007	1.20123E-006	-3.43000E-001	3.62706E-004	6	.....h....a	-327.68
	17	0.24	-2.74693E-001	-3.56677E-001	-3.15685E-001	5.22029E-007	-6.74413E-007	1.19644E-006	-3.41000E-001	3.48956E-004	6	.....h....a	-327.68
	18	0.253333	-2.72692E-001	-3.54683E-001	-3.13688E-001	5.24075E-007	-6.71220E-007	1.19529E-006	-3.39000E-001	3.45206E-004	6	.....h....a	-327.68
	19	0.266667	-2.70696E-001	-3.52682E-001	-3.11689E-001	5.26403E-007	-6.67774E-007	1.19418E-006	-3.37000E-001	3.52706E-004	6	.....h....a	-327.68
	20	0.28	-2.68698E-001	-3.50663E-001	-3.09681E-001	5.28270E-007	-6.64189E-007	1.19246E-006	-3.35000E-001	3.46456E-004	6	.....h....a	-327.68
	21	0.293333	-2.66727E-001	-3.48671E-001	-3.07699E-001	5.29498E-007	-6.59928E-007	1.18943E-006	-3.33000E-001	3.26456E-004	6	.....h....a	-327.68
	22	0.306667	-2.64757E-001	-3.46641E-001	-3.05699E-001	5.29755E-007	-6.56008E-007	1.18576E-006	-3.31000E-001	3.45206E-004	6	.....h....a	-327.68
	23	0.32	-2.62733E-001	-3.44677E-001	-3.03705E-001	5.30941E-007	-6.52717E-007	1.18366E-006	-3.29000E-001	3.73956E-004	6	.....h....a	-327.68
	24	0.333333	-2.60735E-001	-3.42651E-001	-3.01693E-001	5.34429E-007	-6.51135E-007	1.18556E-006	-3.27000E-001	3.46456E-004	6	.....h....a	-327.68
	25	0.346667	-2.58732E-001	-3.40665E-001	-2.99698E-001	5.37729E-007	-6.48804E-007	1.18653E-006	-3.25000E-001	3.76456E-004	6	.....h....a	-327.68
	26	0.36	-2.56780E-001	-3.38645E-001	-2.97712E-001	5.39439E-007	-6.45512E-007	1.18495E-006	-3.23000E-001	3.43956E-004	6	.....h....a	-327.68
	27	0.373333	-2.54755E-001	-3.36657E-001	-2.95706E-001	5.41564E-007	-6.42764E-007	1.18433E-006	-3.21000E-001	3.70206E-004	6	.....h....a	-327.68
	28	0.386667	-2.52756E-001	-3.34657E-001	-2.93707E-001	5.43705E-007	-6.40666E-007	1.18437E-006	-3.19000E-001	3.63956E-004	6	.....h....a	-327.68
	29	0.4	-2.50785E-001	-3.32642E-001	-2.91713E-001	5.46868E-007	-6.40076E-007	1.18694E-006	-3.17000E-001	3.51456E-004	6	.....h....a	-327.68
	30	0.413333	-2.48770E-001	-3.30625E-001	-2.89697E-001	5.49295E-007	-6.38641E-007	1.18794E-006	-3.15000E-001	3.33956E-004	6	.....h....a	-327.68
	31	0.426667	-2.46782E-001	-3.28648E-001	-2.87715E-001	5.52043E-007	-6.36078E-007	1.18812E-006	-3.13000E-001	3.23956E-004	6	.....h....a	-327.68
	32	0.44	-2.44796E-001	-3.26641E-001	-2.85718E-001	5.53699E-007	-6.33975E-007	1.18767E-006	-3.11000E-001	3.53956E-004	6	.....h....a	-327.68
	33	0.453333	-2.42790E-001	-3.24641E-001	-2.83715E-001	5.57096E-007	-6.34115E-007	1.19121E-006	-3.09000E-001	3.46456E-004	6	.....h....a	-327.68
	34	0.466667	-2.40792E-001	-3.22628E-001	-2.81710E-001	5.60349E-007	-6.33385E-007	1.19373E-006	-3.07000E-001	3.33956E-004	6	.....h....a	-327.68
	35	0.48	-2.38813E-001	-3.20620E-001	-2.79717E-001	5.63415E-007	-6.31777E-007	1.19519E-006	-3.05000E-001	3.25206E-004	6	.....h....a	-327.68
	36	0.493333	-2.36800E-001	-3.18611E-001	-2.77705E-001	5.65580E-007	-6.29097E-007	1.19468E-006	-3.03000E-001	3.62706E-004	6	.....h....a	-327.68
	37	0.506667	-2.34836E-001	-3.16625E-001	-2.75730E-001	5.66493E-007	-6.27299E-007	1.19379E-006	-3.01000E-001	3.55206E-004	6	.....h....a	-327.68
	38	0.52	-2.32798E-001	-3.14627E-001	-2.73713E-001	5.69681E-007	-6.26254E-007	1.19593E-006	-2.99000E-001	3.46456E-004	6	.....h....a	-327.68
	39	0.533333	-2.30797E-001	-3.12620E-001	-2.71708E-001	5.73059E-007	-6.26512E-007	1.19957E-006	-2.97000E-001	3.42706E-004	6	.....h....a	-327.68
	40	0.546667	-2.28805E-001	-3.10615E-001	-2.69710E-001	5.75851E-007	-6.26034E-007	1.20189E-006	-2.95000E-001	3.26456E-004	6	.....h....a	-327.68
	41	0.56	-2.26851E-001	-3.08598E-001	-2.67725E-001	5.78039E-007	-6.24181E-007	1.20222E-006	-2.93000E-001	3.56456E-004	6	.....h....a	-327.68
	42	0.573333	-2.24828E-001	-3.06612E-001	-2.65720E-001	5.77857E-007	-6.21564E-007	1.19942E-006	-2.91000E-001	3.61456E-004	6	.....h....a	-327.68
	43	0.586667	-2.22832E-001	-3.04617E-001	-2.63725E-001	5.79239E-007	-6.20178E-007	1.19942E-006	-2.89000E-001	3.51456E-004	6	.....h....a	-327.68
	44	0.6	-2.20853E-001	-3.02630E-001	-2.61742E-001	5.80834E-007	-6.20088E-007	1.20092E-006	-2.87000E-001	3.50206E-004	6	.....h....a	-327.68
	45	0.613333	-2.18840E-001	-3.00613E-001	-2.59727E-001	5.83585E-007	-6.17936E-007	1.20152E-006	-2.85000E-001	3.32706E-004	6	.....h....a	-327.68
	46	0.626667	-2.16853E-001	-2.98582E-001	-2.57718E-001	5.84060E-007	-6.16068E-007	1.20013E-006	-2.83000E-001	3.22706E-004	6	.....h....a	-327.68
	47	0.64	-2.14840E-001	-2.96572E-001	-2.55706E-001	5.84075E-007	-6.12757E-007	1.19683E-006	-2.81000E-001	3.43956E-004	6	.....h....a	-327.68
	48	0.653333	-2.12840E-001	-2.94557E-001	-2.53698E-001	5.84542E-007	-6.11540E-007	1.19608E-006	-2.79000E-001	3.56456E-004	6	.....h....a	-327.68
	49	0.666667	-2.10833E-001	-2.92581E-001	-2.51707E-001	5.85115E-007	-6.10627E-007	1.19574E-006	-2.77000E-001	3.23956E-004	6	.....h....a	-327.68
	50	0.68	-2.08877E-001	-2.90568E-001	-2.49723E-001	5.85833E-007	-6.08127E-007	1.19396E-006	-2.75000E-001	3.56456E-004	6	.....h....a	-327.68
	51	0.693333	-2.06847E-001	-2.88576E-001	-2.47712E-001	5.84020E-007	-6.03844E-007	1.18786E-006	-2.73000E-001	3.36456E-004	6	.....h....a	-327.68
	52	0.706667	-2.04867E-001	-2.86537E-001	-2.45702E-001	5.82625E-007	-5.99901E-007	1.18253E-006	-2.71000E-001	3.36456E-004	6	.....h....a	-327.68
	53	0.72	-2.02871E-001	-2.84518E-001	-2.43695E-001	5.81367E-007	-5.98166E-007	1.17953E-006	-2.69000E-001	3.55206E-004	6	.....h....a	-327.68
	54	0.733333	-2.00877E-001	-2.82511E-001	-2.41694E-001	5.81412E-007	-5.96165E-007	1.17758E-006	-2.67000E-001	3.66456E-004	6	.....h....a	-327.68
	55	0.746667	-1.98851E-001	-2.80521E-001	-2.39686E-001	5.82060E-007	-5.93812E-007	1.17587E-006	-2.65000E-001	3.66456E-004	6	.....h....a	-327.68
	56	0.76	-1.96872E-001	-2.78530E-001	-2.37701E-001	5.79459E-007	-5.89522E-007	1.16898E-006	-2.63000E-001	3.78956E-004	6	.....h....a	-327.68
	57	0.773333	-1.94875E-001	-2.76491E-001	-2.35683E-001	5.76804E-007	-5.84946E-007	1.16175E-006	-2.61000E-001	3.56456E-004	6	.....h....a	-327.68
	58	0.786667	-1.92875E-001	-2.74488E-001	-2.33682E-001	5.74916E-007	-5.81588E-007	1.15650E-006	-2.59000E-001	3.22706E-004	6	.....h....a	-327.68
	59	0.8	-1.90868E-001	-2.72506E-001	-2.31687E-001	5.73226E-007	-5.79183E-007	1.15241E-006	-2.57000E-001	3.45206E-004	6	.....h....a	-327.68
	60	0.813333	-1.88865E-001	-2.70503E-001	-2.29684E-001	5.71891E-007	-5.76063E-007	1.14795E-006	-2.55000E-001	3.57706E-004	6	.....h....a	-327.68
	61	0.826667	-1.86886E-001	-2.68502E-001	-2.27694E-001	5.69651E-007	-5.71965E-007	1.14162E-006	-2.53000E-001	3.33956E-004	6	.....h....a	-327.68
	62	0.84	-1.84885E-001	-2.66481E-001	-2.25683E-001	5.66455E-007	-5.67052E-007	1.13351E-006	-2.51000E-001	3.56456E-004	6	.....h....a	-327.68
	63	0.853333	-1.82838E-001	-2.64486E-001	-2.23662E-001	5.63475E-007	-5.63339E-007	1.12681E-006	-2.49000E-001	3.97706E-004	6	.....h....a	-327.68
	64	0.866667	-1.80852E-001	-2.62506E-001	-2.21679E-001	5.61587E-007	-5.60513E-007	1.12210E-006	-2.47000E-001	3.57706E-004	6	.....h....a	-327.68
	65	0.88	-1.78865E-001	-2.60465E-001	-2.19665E-001	5.60979E-007	-5.57343E-007	1.11832E-006	-2.45000E-001	3.77706E-004	6	.....h....a	-327.68
	66	0.893333	-1.76885E-001	-2.58466E-001	-2.17675E-001	5.57872E-007	-5.52477E-007	1.11035E-006	-2.43000E-001	3.43956E-004	6	.....h....a	-327.68
	67	0.906667	-1.74840E-001	-2.56456E-001	-2.15648E-001	5.53831E-007	-5.48119E-007	1.10195E-006	-2.41000E-001	3.67706E-004	6	.....h....a	-327.68
	68	0.92	-1.72872E-001	-2.54480E-001	-2.13676E-001	5.51553E-007	-5.44321E-007	1.09587E-006	-2.39000E-001	3.51456E-004	6	.....h....a	-327.68
	69	0.933333	-1.70896E-001	-2.52473E-001	-2.11685E-001	5.49583E-007	-5.41541E-007	1.09112E-006	-2.37000E-001	3.48956E-004	6	.....h....a	-327.68
	70	0.946667	-1.68877E-001	-2.50450E-001	-2.09663E-001	5.47813E-007	-5.38063E-007	1.08588E-006	-2.35000E-001	3.15206E-004	6	.....h....a	-327.68
	71	0.96	-1.66877E-001	-2.48471E-001	-2.07674E-001	5.45300E-007	-5.34527E-007	1.07983E-006	-2.33000E-001	3.48956E-004	6	.....h....a	-327.68
	72	0.97333	-1.64858E-001	-2.46451E-001	-2.05655E-001	5.41830E-007	-5.29469E-007	1.07130E-006	-2.31000E-001	3.75206E-004	6	.....h....a	-327.68
	73	0.98667	-1.62882E-001	-2.44443E-001	-2.03663E-001	5.39347E-007	-5.25836E-007	1.06518E-006	-2.29000E-001	3.62706E-004	6	.....h....a	-327.68
	74	1	-1.60878E-001	-2.42447E-001	-2.01663E-001	5.37651E-007	-5.23406E-007	1.06106E-006	-2.27000E-001	3.71456E-004	6	.....h....a	-327.68
	75	1.01333	-1.58895E-001	-2.40455E-001	-1.99675E-001	5.36471E-007	-5.20616E-007	1.05709E-006	-2.25000E-001	3.53956E-004	6	.....h....a	-327.68
	76	1.02667	-1.56897E-001	-2.38437E-001	-1.97667E-001	5.34966E-007	-5.16060E-007	1.05103E-006	-2.23000E-001	3.51456E-004	6	.....h....a	-327.68
	77	1.04	-1.54921E-001	-2.36452E-001	-1.95687E-001	5.31613E-007	-5.11257E-007	1.04287E-006	-2.21000E-001	3.31456E-004	6	.....h....a	-327.68
	78	1.05333	-1.52900E-001	-2.34425E-001	-1.93662E-001	5.29818E-007	-5.09014E-007	1.03883E-006	-2.19000E-001	3.55206E-004	6	.....h....a	-327.68
	79	1.06667	-1.50913E-001	-2.32436E-001	-1.91675E-001	5.28313E-007	-5.06901E-007	1.03521E-006	-2.17000E-001	3.56456E-004	6	.....h....a	-327.68
	80	1.08	-1.48887E-001	-2.30427E-001	-1.89657E-001	5.26945E-007	-5.03421E-007	1.03037E-006	-2.15000E-001	3.65206E-004	6	.....h....a	-327.68
	81	1.09333	-1.46931E-001	-2.28425E-001	-1.87678E-001	5.24840E-007	-5.00001E-007	1.02484E-006	-2.13000E-001	3.41456E-004	6	.....h....a	-327.68
	82	1.10667	-1.44908E-001	-2.26433E-001	-1.85671E-001	5.23090E-007	-4.96608E-007	1.01970E-006	-2.11000E-001	3.40206E-004	6	.....h....a	-327.68
	83	1.12	-1.42903E-001	-2.24443E-001	-1.83673E-001	5.21937E-007	-4.93517E-007	1.01545E-006	-2.09000E-001	3.32706E-004	6	.....h....a	-327.68
	84	1.13333	-1.40900E-001	-2.22457E-001	-1.81678E-001	5.21792E-007	-4.91872E-007	1.01366E-006	-2.07000E-001	3.81456E-004	6	.....h....a	-327.68
	85	1.14667	-1.38907E-001	-2.20423E-001	-1.79665E-001	5.21407E-007	-4.90824E-007	1.01223E-006	-2.05000E-001	3.23956E-004	6	.....h....a	-327.68
	86	1.16	-1.36935E-001	-2.18428E-001	-1.77682E-001	5.20494E-007	-4.87346E-007	1.00784E-006	-2.03000E-001	3.72706E-004	6	.....h....a	-327.68
	87	1.17333	-1.34937E-001	-2.16451E-001	-1.75694E-001	5.17839E-007	-4.83331E-007	1.00117E-006	-2.01000E-001	3.37706E-004	6	.....h....a	-327.68
	88	1.18667	-1.32913E-001	-2.14465E-001	-1.73689E-001	5.16416E-007	-4.81983E-007	9.98400E-007	-1.99000E-001	3.53956E-004	6	.....h....a	-327.68
	89	1.2	-1.30942E-001	-2.12441E-001	-1.71692E-001	5.16999E-007	-4.81446E-007	9.98445E-007	-1.97000E-001	3.27706E-004	6	.....h....a	-327.68
	90	1.21333	-1.28936E-001	-2.10450E-001	-1.69693E-001	5.17769E-007	-4.79443E-007	9.97212E-007	-1.95000E-001	3.61456E-004	6	.....h....a	-327.68
	91	1.22667	-1.26932E-001	-2.08435E-001	-1.67683E-001	5.17409E-007	-4.76920E-007	9.94329E-007	-1.93000E-001	3.56456E-004	6	.....h....a	-327.68
	92	1.24	-1.24930E-001	-2.06436E-001	-1.65683E-001	5.15219E-007	-4.74430E-007	9.89648E-007	-1.91000E-001	3.23956E-004	6	.....h....a	-327.68
	93	1.25333	-1.22933E-001	-2.04443E-001	-1.63688E-001	5.15741E-007	-4.73502E-007	9.89243E-007	-1.89000E-001	3.51456E-004	6	.....h....a	-327.68
	94	1.26667	-1.20941E-001	-2.02443E-001	-1.61692E-001	5.16046E-007	-4.71924E-007	9.87971E-007	-1.87000E-001	3.36456E-004	6	.....h....a	-327.68
	95	1.28	-1.18943E-001	-2.00435E-001	-1.59689E-001	5.17234E-007	-4.71314E-007	9.88548E-007	-1.85000E-001	3.31456E-004	6	.....h....a	-327.68
	96	1.29333	-1.16956E-001	-1.98462E-001	-1.57709E-001	5.18497E-007	-4.69764E-007	9.88261E-007	-1.83000E-001	3.31456E-004	6	.....h....a	-327.68
	97	1.30667	-1.14946E-001	-1.96458E-001	-1.55702E-001	5.16734E-007	-4.68642E-007	9.85375E-007	-1.81000E-001	3.53956E-004	6	.....h....a	-327.68
	98	1.32	-1.12981E-001	-1.94446E-001	-1.53713E-001	5.17651E-007	-4.67594E-007	9.85245E-007	-1.79000E-001	3.55206E-004	6	.....h....a	-327.68
	99	1.33333	-1.10978E-001	-1.92475E-001	-1.51727E-001	5.18537E-007	-4.67886E-007	9.86423E-007	-1.77000E-001	3.47706E-004	6	.....h....a	-327.68
	100	1.34667	-1.08985E-001	-1.90433E-001	-1.49709E-001	5.21137E-007	-4.67714E-007	9.88851E-007	-1.75000E-001	3.41456E-004	6	.....h....a	-327.68
