EXPLAIN
TAG	SQUARE_WAVE
TITLE	LABEL	Square Wave Voltammetry	Test Identifier
DATE	LABEL	8/10/2020	Date
TIME	LABEL	15:05:23	Time
NOTES	NOTES	1	Notes...
	 STD2 0.1 fg/mL 08102
PSTAT	PSTAT	REF600-24079	Potentiostat
VINIT	QUANT	-3.50000E-001	Initial E (V)
VFINAL	QUANT	-1.50000E-001	Final E (V)
STEPSIZE	QUANT	2.00000E+000	Step Size (mV)
TIMERRES	QUANT	3.33340E-005	&Timer Resolution
FREQUENCY	QUANT	1.00000E+001	Frequency (Hz)
PULSESIZE	QUANT	2.50000E+001	Pulse Size E (mV)
PULSEON	QUANT	1.00000E-001	Pulse &Time (s)
NOISEREJECT	TOGGLE	F	Noise Rejection
AREA	QUANT	2.00000E-002	Sample Area (cm^2)
IMODE	SELECTOR	1	I/E Range Mode
IRANGE	QUANT	1.00000E-003	Max Current (mA)
EQDELAY	IQUANT	10	Equil. Time (s)
IRCOMP	SELECTOR	0	IRComp
PFCOR	QUANT	5.00000E+001	PF Corr. (ohm)
CYCLES	IQUANT	101	C&ycles (#)
ELECTRODETYPE	SELECTOR	0	Electrode Type
STRIPPING	TOGGLE	F	Used for Stripping
POLARITY	TOGGLE	F	Signal Polarity
LINEFREQ	IQUANT	60	Line Frequency (Hz)
INTPERIOD	QUANT	3.3334E-005	Integration Period (s)
SEQUENCER	TOGGLE	TRUE	Run as Sequence
PSTATMODEL	IQUANT	4	Pstat Model
PSTATSECTION	LABEL	REF600-24079	Pstat Section
PSTATSERIALNO	LABEL	24079	Pstat Serial Number
CTRLMODE	IQUANT	1	Control Mode
ELECTROMETER	IQUANT	0	RE=0 or CS=1
IESTAB	IQUANT	2	I/E Stability
CASPEED	IQUANT	6	Control Amp Speed
CONVENTION	IQUANT	1	Current Convention
ICHRANGE	IQUANT	2	Ich Range
ICHRANGEMODE	TOGGLE	F	Ich Auto Range
ICHOFFSETENABLE	TOGGLE	F	Ich Offset Enable
ICHOFFSET	QUANT	0	Ich Offset (V)
ICHFILTER	IQUANT	2	Ich Filter
VCHRANGE	IQUANT	2	Vch Range
VCHRANGEMODE	TOGGLE	F	Vch Auto Range
VCHOFFSETENABLE	TOGGLE	F	Vch Offset Enable
VCHOFFSET	QUANT	0	Vch Offset (V)
VCHFILTER	IQUANT	2	Vch Filter
ACHRANGE	IQUANT	2	Ach Range
ACHOFFSETENABLE	TOGGLE	F	Ach Offset Enable
ACHOFFSET	QUANT	0	Ach Offset (V)
ACHFILTER	IQUANT	1	Ach Filter
IERANGELOWERLIMIT	IQUANT	1	I/E Range Lower Limit
IERANGEMODE	TOGGLE	F	I/E AutoRange
IERANGE	IQUANT	6	I/E Range
POSFEEDENABLE	TOGGLE	F	Positive Feedback IR Comp
POSFEEDRESISTANCE	QUANT	0	Positive Feedback Resistance (ohm)
ACHSELECT	IQUANT	0	Ach Select
SENSECABLEID	IQUANT	13	Sense Cable ID
PWRCABLEID	IQUANT	13	Power Cable ID
DCCALDATE	LABEL	6/30/2020	DC Calibration Date
ACCALDATE	LABEL	6/30/2020	AC Calibration Date
THERMOSELECT	IQUANT	1	Thermo Select
FRAMEWORKVERSION	LABEL	7.8.2	Framework Version
INSTRUMENTVERSION	LABEL	4.40	Instrument Version
CURVE	TABLE	101
	Pt	T	Vfwd	Vrev	Vstep	Ifwd	Irev	Idif	Sig	Ach	IERange	Over	Temp
	#	s	V	V	V	A	A	A	V	V	#	bits	deg C
	0	0.1	-3.24855E-001	-3.74882E-001	-3.49869E-001	-6.72940E-008	-1.27794E-007	6.05000E-008	-3.75000E-001	4.04039E-004	6	..........a	-327.68
	1	0.2	-3.22842E-001	-3.72884E-001	-3.47863E-001	-5.31769E-008	-1.21358E-007	6.81813E-008	-3.73000E-001	4.14873E-004	6	..........a	-327.68
	2	0.3	-3.20861E-001	-3.70772E-001	-3.45816E-001	-4.97261E-008	-1.18009E-007	6.82830E-008	-3.71000E-001	4.12873E-004	6	..........a	-327.68
	3	0.4	-3.18879E-001	-3.68914E-001	-3.43896E-001	-4.80299E-008	-1.15776E-007	6.77466E-008	-3.69000E-001	4.11206E-004	6	..........a	-327.68
	4	0.5	-3.16801E-001	-3.66912E-001	-3.41856E-001	-4.65253E-008	-1.13807E-007	6.72816E-008	-3.67000E-001	4.11373E-004	6	..........a	-327.68
	5	0.6	-3.14877E-001	-3.64885E-001	-3.39881E-001	-4.46971E-008	-1.09959E-007	6.52616E-008	-3.65000E-001	4.11373E-004	6	..........a	-327.68
	6	0.7	-3.12893E-001	-3.62807E-001	-3.37850E-001	-4.23571E-008	-1.08519E-007	6.61618E-008	-3.63000E-001	4.02873E-004	6	..........a	-327.68
	7	0.8	-3.10876E-001	-3.60863E-001	-3.35869E-001	-4.16957E-008	-1.07081E-007	6.53853E-008	-3.61000E-001	4.09706E-004	6	..........a	-327.68
	8	0.9	-3.08826E-001	-3.58862E-001	-3.33844E-001	-4.07753E-008	-1.05407E-007	6.46319E-008	-3.59000E-001	3.96873E-004	6	..........a	-327.68
	9	1	-3.06826E-001	-3.56834E-001	-3.31830E-001	-3.93331E-008	-1.03556E-007	6.42228E-008	-3.57000E-001	4.17039E-004	6	..........a	-327.68
	10	1.1	-3.04881E-001	-3.54829E-001	-3.29855E-001	-3.82306E-008	-1.02094E-007	6.38631E-008	-3.55000E-001	3.96373E-004	6	..........a	-327.68
	11	1.2	-3.02901E-001	-3.52893E-001	-3.27897E-001	-3.69061E-008	-1.00582E-007	6.36754E-008	-3.53000E-001	3.87539E-004	6	..........a	-327.68
	12	1.3	-3.00856E-001	-3.50875E-001	-3.25866E-001	-3.58840E-008	-9.87103E-008	6.28263E-008	-3.51000E-001	3.99206E-004	6	..........a	-327.68
	13	1.4	-2.98849E-001	-3.48884E-001	-3.23866E-001	-3.47268E-008	-9.73421E-008	6.26153E-008	-3.49000E-001	3.96706E-004	6	..........a	-327.68
	14	1.5	-2.96878E-001	-3.46859E-001	-3.21868E-001	-3.37087E-008	-9.60210E-008	6.23123E-008	-3.47000E-001	3.97873E-004	6	..........a	-327.68
	15	1.6	-2.94881E-001	-3.44905E-001	-3.19893E-001	-3.24159E-008	-9.44838E-008	6.20679E-008	-3.45000E-001	3.85206E-004	6	..........a	-327.68
	16	1.7	-2.92750E-001	-3.42878E-001	-3.17814E-001	-3.12504E-008	-9.30096E-008	6.17592E-008	-3.43000E-001	3.96039E-004	6	..........a	-327.68
	17	1.8	-2.90798E-001	-3.40813E-001	-3.15805E-001	-3.00479E-008	-9.17751E-008	6.17272E-008	-3.41000E-001	4.09039E-004	6	..........a	-327.68
	18	1.9	-2.88910E-001	-3.38826E-001	-3.13868E-001	-2.91135E-008	-9.01926E-008	6.10791E-008	-3.39000E-001	3.93873E-004	6	..........a	-327.68
	19	2	-2.86876E-001	-3.36863E-001	-3.11870E-001	-2.78090E-008	-8.91954E-008	6.13865E-008	-3.37000E-001	3.94873E-004	6	..........a	-327.68
	20	2.1	-2.84832E-001	-3.34887E-001	-3.09859E-001	-2.68832E-008	-8.76866E-008	6.08034E-008	-3.35000E-001	4.03873E-004	6	..........a	-327.68
	21	2.2	-2.82810E-001	-3.32833E-001	-3.07822E-001	-2.61517E-008	-8.65381E-008	6.03863E-008	-3.33000E-001	3.81206E-004	6	..........a	-327.68
	22	2.3	-2.80887E-001	-3.30822E-001	-3.05854E-001	-2.48336E-008	-8.54653E-008	6.06317E-008	-3.31000E-001	3.97373E-004	6	..........a	-327.68
	23	2.4	-2.78886E-001	-3.28873E-001	-3.03880E-001	-2.37378E-008	-8.42208E-008	6.04830E-008	-3.29000E-001	4.06206E-004	6	..........a	-327.68
	24	2.5	-2.76851E-001	-3.26887E-001	-3.01869E-001	-2.27326E-008	-8.31077E-008	6.03750E-008	-3.27000E-001	3.86039E-004	6	..........a	-327.68
	25	2.6	-2.74837E-001	-3.24881E-001	-2.99859E-001	-2.17902E-008	-8.20195E-008	6.02293E-008	-3.25000E-001	4.14206E-004	6	..........a	-327.68
	26	2.7	-2.72881E-001	-3.22846E-001	-2.97863E-001	-2.06540E-008	-8.09660E-008	6.03120E-008	-3.23000E-001	4.06373E-004	6	..........a	-327.68
	27	2.8	-2.70874E-001	-3.20869E-001	-2.95871E-001	-1.97356E-008	-8.00643E-008	6.03287E-008	-3.21000E-001	3.95873E-004	6	..........a	-327.68
	28	2.9	-2.68886E-001	-3.18906E-001	-2.93896E-001	-1.85488E-008	-7.90028E-008	6.04540E-008	-3.19000E-001	3.92706E-004	6	..........a	-327.68
	29	3	-2.66784E-001	-3.16812E-001	-2.91798E-001	-1.76077E-008	-7.79997E-008	6.03920E-008	-3.17000E-001	4.06206E-004	6	..........a	-327.68
	30	3.1	-2.64890E-001	-3.14880E-001	-2.89885E-001	-1.64562E-008	-7.70729E-008	6.06167E-008	-3.15000E-001	4.06539E-004	6	..........a	-327.68
	31	3.2	-2.62903E-001	-3.12912E-001	-2.87908E-001	-1.56591E-008	-7.62445E-008	6.05854E-008	-3.13000E-001	4.14206E-004	6	..........a	-327.68
	32	3.3	-2.60797E-001	-3.10896E-001	-2.85846E-001	-1.46253E-008	-7.54720E-008	6.08467E-008	-3.11000E-001	4.09706E-004	6	..........a	-327.68
	33	3.4	-2.58810E-001	-3.08861E-001	-2.83836E-001	-1.37638E-008	-7.47799E-008	6.10161E-008	-3.09000E-001	4.07706E-004	6	..........a	-327.68
	34	3.5	-2.56867E-001	-3.06823E-001	-2.81845E-001	-1.27474E-008	-7.38321E-008	6.10848E-008	-3.07000E-001	4.12206E-004	6	..........a	-327.68
	35	3.6	-2.54913E-001	-3.04888E-001	-2.79900E-001	-1.18146E-008	-7.30850E-008	6.12705E-008	-3.05000E-001	4.09873E-004	6	..........a	-327.68
	36	3.7	-2.52815E-001	-3.02902E-001	-2.77858E-001	-1.10045E-008	-7.23856E-008	6.13811E-008	-3.03000E-001	4.14373E-004	6	..........a	-327.68
	37	3.8	-2.50828E-001	-3.00884E-001	-2.75856E-001	-1.01674E-008	-7.16009E-008	6.14335E-008	-3.01000E-001	4.25039E-004	6	..........a	-327.68
	38	3.9	-2.48878E-001	-2.98848E-001	-2.73863E-001	-9.26626E-009	-7.09174E-008	6.16512E-008	-2.99000E-001	4.29706E-004	6	..........a	-327.68
	39	4	-2.46871E-001	-2.96888E-001	-2.71879E-001	-8.39382E-009	-7.02484E-008	6.18545E-008	-2.97000E-001	4.06706E-004	6	..........a	-327.68
	40	4.1	-2.44873E-001	-2.94877E-001	-2.69875E-001	-7.69673E-009	-6.96276E-008	6.19309E-008	-2.95000E-001	4.12206E-004	6	..........a	-327.68
	41	4.2	-2.42782E-001	-2.92763E-001	-2.67773E-001	-7.13299E-009	-6.88965E-008	6.17635E-008	-2.93000E-001	4.11039E-004	6	..........a	-327.68
	42	4.3	-2.40865E-001	-2.90798E-001	-2.65831E-001	-6.25288E-009	-6.82408E-008	6.19879E-008	-2.91000E-001	4.14873E-004	6	..........a	-327.68
	43	4.4	-2.38915E-001	-2.88910E-001	-2.63912E-001	-5.80516E-009	-6.75217E-008	6.17165E-008	-2.89000E-001	4.13373E-004	6	..........a	-327.68
	44	4.5	-2.36862E-001	-2.86870E-001	-2.61866E-001	-5.29176E-009	-6.67802E-008	6.14885E-008	-2.87000E-001	4.22206E-004	6	..........a	-327.68
	45	4.6	-2.34799E-001	-2.84818E-001	-2.59809E-001	-4.47665E-009	-6.61122E-008	6.16355E-008	-2.85000E-001	4.13206E-004	6	..........a	-327.68
	46	4.7	-2.32840E-001	-2.82805E-001	-2.57822E-001	-4.17361E-009	-6.54424E-008	6.12688E-008	-2.83000E-001	4.11206E-004	6	..........a	-327.68
	47	4.8	-2.30879E-001	-2.80902E-001	-2.55891E-001	-3.59821E-009	-6.47793E-008	6.11811E-008	-2.81000E-001	4.14039E-004	6	..........a	-327.68
	48	4.9	-2.28798E-001	-2.78881E-001	-2.53840E-001	-3.16549E-009	-6.39909E-008	6.08254E-008	-2.79000E-001	4.05539E-004	6	..........a	-327.68
	49	5	-2.26810E-001	-2.76857E-001	-2.51834E-001	-2.68109E-009	-6.33231E-008	6.06421E-008	-2.77000E-001	4.06039E-004	6	..........a	-327.68
	50	5.1	-2.24858E-001	-2.74831E-001	-2.49845E-001	-2.24637E-009	-6.25477E-008	6.03013E-008	-2.75000E-001	4.02539E-004	6	..........a	-327.68
	51	5.2	-2.22871E-001	-2.72859E-001	-2.47865E-001	-1.85265E-009	-6.15732E-008	5.97206E-008	-2.73000E-001	4.02039E-004	6	..........a	-327.68
	52	5.3	-2.20870E-001	-2.70841E-001	-2.45856E-001	-1.47094E-009	-6.10545E-008	5.95836E-008	-2.71000E-001	3.94706E-004	6	..........a	-327.68
	53	5.4	-2.18861E-001	-2.68866E-001	-2.43863E-001	-1.02388E-009	-6.02608E-008	5.92369E-008	-2.69000E-001	4.06873E-004	6	..........a	-327.68
	54	5.5	-2.16872E-001	-2.66785E-001	-2.41829E-001	-7.32843E-010	-5.92850E-008	5.85521E-008	-2.67000E-001	4.05539E-004	6	..........a	-327.68
	55	5.6	-2.14901E-001	-2.64888E-001	-2.39895E-001	-2.75452E-010	-5.84429E-008	5.81674E-008	-2.65000E-001	4.11873E-004	6	..........a	-327.68
	56	5.7	-2.12868E-001	-2.62877E-001	-2.37873E-001	2.15861E-011	-5.74234E-008	5.74450E-008	-2.63000E-001	4.06873E-004	6	..........a	-327.68
	57	5.8	-2.10843E-001	-2.60861E-001	-2.35852E-001	2.33946E-010	-5.67650E-008	5.69989E-008	-2.61000E-001	4.05039E-004	6	..........a	-327.68
	58	5.9	-2.08847E-001	-2.58806E-001	-2.33827E-001	6.74336E-010	-5.58862E-008	5.65605E-008	-2.59000E-001	4.10706E-004	6	..........a	-327.68
	59	6	-2.06891E-001	-2.56862E-001	-2.31876E-001	1.09206E-009	-5.49541E-008	5.60461E-008	-2.57000E-001	4.11373E-004	6	..........a	-327.68
	60	6.1	-2.04819E-001	-2.54881E-001	-2.29850E-001	1.52578E-009	-5.39353E-008	5.54611E-008	-2.55000E-001	4.05206E-004	6	..........a	-327.68
	61	6.2	-2.02806E-001	-2.52867E-001	-2.27837E-001	1.79581E-009	-5.29548E-008	5.47506E-008	-2.53000E-001	4.08873E-004	6	..........a	-327.68
	62	6.3	-2.00870E-001	-2.50834E-001	-2.25852E-001	1.88216E-009	-5.22364E-008	5.41186E-008	-2.51000E-001	3.85873E-004	6	..........a	-327.68
	63	6.4	-1.98884E-001	-2.48880E-001	-2.23882E-001	2.27887E-009	-5.14690E-008	5.37478E-008	-2.49000E-001	3.88873E-004	6	..........a	-327.68
	64	6.5	-1.96871E-001	-2.46878E-001	-2.21874E-001	2.52657E-009	-5.07032E-008	5.32298E-008	-2.47000E-001	3.82873E-004	6	..........a	-327.68
	65	6.6	-1.94855E-001	-2.44879E-001	-2.19867E-001	2.80327E-009	-5.01061E-008	5.29094E-008	-2.45000E-001	3.88039E-004	6	..........a	-327.68
	66	6.7	-1.92897E-001	-2.42784E-001	-2.17841E-001	3.20933E-009	-4.90770E-008	5.22863E-008	-2.43000E-001	3.86039E-004	6	..........a	-327.68
	67	6.8	-1.90910E-001	-2.40895E-001	-2.15903E-001	3.58571E-009	-4.84039E-008	5.19896E-008	-2.41000E-001	3.70539E-004	6	..........a	-327.68
	68	6.9	-1.88779E-001	-2.38915E-001	-2.13847E-001	3.82174E-009	-4.75315E-008	5.13532E-008	-2.39000E-001	3.78039E-004	6	..........a	-327.68
	69	7	-1.86819E-001	-2.36895E-001	-2.11857E-001	4.27546E-009	-4.66930E-008	5.09685E-008	-2.37000E-001	3.85039E-004	6	..........a	-327.68
	70	7.1	-1.84901E-001	-2.34801E-001	-2.09851E-001	4.62917E-009	-4.59653E-008	5.05944E-008	-2.35000E-001	3.86873E-004	6	..........a	-327.68
	71	7.2	-1.82873E-001	-2.32852E-001	-2.07863E-001	4.91821E-009	-4.53655E-008	5.02837E-008	-2.33000E-001	3.91206E-004	6	..........a	-327.68
	72	7.3	-1.80811E-001	-2.30873E-001	-2.05842E-001	5.40160E-009	-4.46134E-008	5.00150E-008	-2.31000E-001	3.81206E-004	6	..........a	-327.68
	73	7.4	-1.78796E-001	-2.28851E-001	-2.03823E-001	5.57996E-009	-4.40317E-008	4.96116E-008	-2.29000E-001	3.77706E-004	6	..........a	-327.68
	74	7.5	-1.76851E-001	-2.26816E-001	-2.01833E-001	5.86966E-009	-4.34093E-008	4.92789E-008	-2.27000E-001	3.84206E-004	6	..........a	-327.68
	75	7.6	-1.74885E-001	-2.24881E-001	-1.99883E-001	6.19170E-009	-4.25348E-008	4.87265E-008	-2.25000E-001	3.85373E-004	6	..........a	-327.68
	76	7.7	-1.72856E-001	-2.22872E-001	-1.97864E-001	6.79245E-009	-4.20518E-008	4.88442E-008	-2.23000E-001	3.79539E-004	6	..........a	-327.68
	77	7.8	-1.70834E-001	-2.20879E-001	-1.95857E-001	6.96347E-009	-4.11960E-008	4.81595E-008	-2.21000E-001	3.81206E-004	6	..........a	-327.68
	78	7.9	-1.68886E-001	-2.18861E-001	-1.93874E-001	7.23584E-009	-4.08419E-008	4.80778E-008	-2.19000E-001	3.90206E-004	6	..........a	-327.68
	79	8	-1.66890E-001	-2.16884E-001	-1.91887E-001	7.60588E-009	-4.02272E-008	4.78331E-008	-2.17000E-001	3.87039E-004	6	..........a	-327.68
	80	8.1	-1.64699E-001	-2.14890E-001	-1.89795E-001	8.02861E-009	-3.94771E-008	4.75057E-008	-2.15000E-001	3.86873E-004	6	..........a	-327.68
	81	8.2	-1.62791E-001	-2.12725E-001	-1.87758E-001	8.18162E-009	-3.90921E-008	4.72737E-008	-2.13000E-001	4.05039E-004	6	..........a	-327.68
	82	8.3	-1.60909E-001	-2.10843E-001	-1.85876E-001	8.69102E-009	-3.84196E-008	4.71107E-008	-2.11000E-001	3.79873E-004	6	..........a	-327.68
	83	8.4	-1.58880E-001	-2.08858E-001	-1.83869E-001	8.95472E-009	-3.79816E-008	4.69363E-008	-2.09000E-001	3.78873E-004	6	..........a	-327.68
	84	8.5	-1.56764E-001	-2.06888E-001	-1.81826E-001	9.12774E-009	-3.76219E-008	4.67496E-008	-2.07000E-001	3.75539E-004	6	..........a	-327.68
	85	8.6	-1.54777E-001	-2.04825E-001	-1.79801E-001	9.68448E-009	-3.64781E-008	4.61625E-008	-2.05000E-001	3.78539E-004	6	..........a	-327.68
	86	8.7	-1.52887E-001	-2.02819E-001	-1.77853E-001	9.88117E-009	-3.65484E-008	4.64296E-008	-2.03000E-001	3.87539E-004	6	..........a	-327.68
	87	8.8	-1.50888E-001	-2.00883E-001	-1.75886E-001	1.03136E-008	-3.59550E-008	4.62686E-008	-2.01000E-001	3.84373E-004	6	..........a	-327.68
	88	8.9	-1.48835E-001	-1.98890E-001	-1.73863E-001	1.04129E-008	-3.52972E-008	4.57102E-008	-1.99000E-001	3.68873E-004	6	..........a	-327.68
	89	9	-1.46827E-001	-1.96863E-001	-1.71845E-001	1.09263E-008	-3.49132E-008	4.58395E-008	-1.97000E-001	3.78039E-004	6	..........a	-327.68
	90	9.1	-1.44863E-001	-1.94846E-001	-1.69855E-001	1.13087E-008	-3.43421E-008	4.56508E-008	-1.95000E-001	3.84373E-004	6	..........a	-327.68
	91	9.2	-1.42889E-001	-1.92889E-001	-1.67889E-001	1.16337E-008	-3.42571E-008	4.58908E-008	-1.93000E-001	3.88706E-004	6	..........a	-327.68
	92	9.3	-1.40869E-001	-1.90902E-001	-1.65885E-001	1.18261E-008	-3.38071E-008	4.56331E-008	-1.91000E-001	3.83873E-004	6	..........a	-327.68
	93	9.4	-1.38767E-001	-1.88790E-001	-1.63778E-001	1.21975E-008	-3.29769E-008	4.51744E-008	-1.89000E-001	3.83706E-004	6	..........a	-327.68
	94	9.5	-1.36850E-001	-1.86822E-001	-1.61836E-001	1.24002E-008	-3.27249E-008	4.51251E-008	-1.87000E-001	3.85706E-004	6	..........a	-327.68
	95	9.6	-1.34899E-001	-1.84900E-001	-1.59900E-001	1.27002E-008	-3.23592E-008	4.50594E-008	-1.85000E-001	3.77206E-004	6	..........a	-327.68
	96	9.7	-1.32742E-001	-1.82898E-001	-1.57820E-001	1.30716E-008	-3.20805E-008	4.51521E-008	-1.83000E-001	3.76539E-004	6	..........a	-327.68
	97	9.8	-1.30795E-001	-1.80832E-001	-1.55813E-001	1.34053E-008	-3.16311E-008	4.50364E-008	-1.81000E-001	3.87706E-004	6	..........a	-327.68
	98	9.9	-1.28832E-001	-1.78813E-001	-1.53822E-001	1.35243E-008	-3.12084E-008	4.47327E-008	-1.79000E-001	3.78539E-004	6	..........a	-327.68
	99	10	-1.26893E-001	-1.76859E-001	-1.51876E-001	1.39100E-008	-3.10017E-008	4.49117E-008	-1.77000E-001	3.77706E-004	6	..........a	-327.68
	100	10.1	-1.24791E-001	-1.74903E-001	-1.49847E-001	1.41767E-008	-3.05543E-008	4.47310E-008	-1.75000E-001	3.89539E-004	6	..........a	-327.68
