EXPLAIN
TAG	SQUARE_WAVE
TITLE	LABEL	Square Wave Voltammetry	Test Identifier
DATE	LABEL	8/10/2020	Date
TIME	LABEL	19:32:12	Time
NOTES	NOTES	1	Notes...
	
PSTAT	PSTAT	REF600-24079	Potentiostat
VINIT	QUANT	-3.50000E-001	Initial E (V)
VFINAL	QUANT	-1.50000E-001	Final E (V)
STEPSIZE	QUANT	2.00000E+000	Step Size (mV)
TIMERRES	QUANT	3.33340E-005	&Timer Resolution
FREQUENCY	QUANT	5.00000E+002	Frequency (Hz)
PULSESIZE	QUANT	2.50000E+001	Pulse Size E (mV)
PULSEON	QUANT	2.00000E-003	Pulse &Time (s)
NOISEREJECT	TOGGLE	F	Noise Rejection
AREA	QUANT	2.00000E-002	Sample Area (cm^2)
IMODE	SELECTOR	1	I/E Range Mode
IRANGE	QUANT	1.00000E-002	Max Current (mA)
EQDELAY	IQUANT	10	Equil. Time (s)
IRCOMP	SELECTOR	0	IRComp
PFCOR	QUANT	5.00000E+001	PF Corr. (ohm)
CYCLES	IQUANT	101	C&ycles (#)
ELECTRODETYPE	SELECTOR	0	Electrode Type
STRIPPING	TOGGLE	F	Used for Stripping
POLARITY	TOGGLE	F	Signal Polarity
LINEFREQ	IQUANT	60	Line Frequency (Hz)
INTPERIOD	QUANT	3.3334E-005	Integration Period (s)
SEQUENCER	TOGGLE	TRUE	Run as Sequence
PSTATMODEL	IQUANT	4	Pstat Model
PSTATSECTION	LABEL	REF600-24079	Pstat Section
PSTATSERIALNO	LABEL	24079	Pstat Serial Number
CTRLMODE	IQUANT	1	Control Mode
ELECTROMETER	IQUANT	0	RE=0 or CS=1
IESTAB	IQUANT	2	I/E Stability
CASPEED	IQUANT	6	Control Amp Speed
CONVENTION	IQUANT	1	Current Convention
ICHRANGE	IQUANT	2	Ich Range
ICHRANGEMODE	TOGGLE	F	Ich Auto Range
ICHOFFSETENABLE	TOGGLE	F	Ich Offset Enable
ICHOFFSET	QUANT	0	Ich Offset (V)
ICHFILTER	IQUANT	1	Ich Filter
VCHRANGE	IQUANT	2	Vch Range
VCHRANGEMODE	TOGGLE	F	Vch Auto Range
VCHOFFSETENABLE	TOGGLE	F	Vch Offset Enable
VCHOFFSET	QUANT	0	Vch Offset (V)
VCHFILTER	IQUANT	1	Vch Filter
ACHRANGE	IQUANT	2	Ach Range
ACHOFFSETENABLE	TOGGLE	F	Ach Offset Enable
ACHOFFSET	QUANT	0	Ach Offset (V)
ACHFILTER	IQUANT	1	Ach Filter
IERANGELOWERLIMIT	IQUANT	1	I/E Range Lower Limit
IERANGEMODE	TOGGLE	F	I/E AutoRange
IERANGE	IQUANT	7	I/E Range
POSFEEDENABLE	TOGGLE	F	Positive Feedback IR Comp
POSFEEDRESISTANCE	QUANT	0	Positive Feedback Resistance (ohm)
ACHSELECT	IQUANT	0	Ach Select
SENSECABLEID	IQUANT	13	Sense Cable ID
PWRCABLEID	IQUANT	13	Power Cable ID
DCCALDATE	LABEL	6/30/2020	DC Calibration Date
ACCALDATE	LABEL	6/30/2020	AC Calibration Date
THERMOSELECT	IQUANT	1	Thermo Select
FRAMEWORKVERSION	LABEL	7.8.2	Framework Version
INSTRUMENTVERSION	LABEL	4.40	Instrument Version
CURVE	TABLE	101
	Pt	T	Vfwd	Vrev	Vstep	Ifwd	Irev	Idif	Sig	Ach	IERange	Over	Temp
	#	s	V	V	V	A	A	A	V	V	#	bits	deg C
	0	0.002	-3.24316E-001	-3.62566E-001	-3.43441E-001	-1.62156E-008	-1.20734E-005	1.20571E-005	-3.75000E-001	3.24373E-004	7	..........a	-327.68
	1	0.004	-3.40124E-001	-3.57699E-001	-3.48912E-001	8.51628E-006	-7.38289E-006	1.58992E-005	-3.73000E-001	2.16039E-004	7	..........a	-327.68
	2	0.006	-3.34574E-001	-3.55349E-001	-3.44962E-001	8.28475E-006	-8.12249E-006	1.64072E-005	-3.71000E-001	2.66039E-004	7	..........a	-327.68
	3	0.008	-3.33032E-001	-3.53474E-001	-3.43253E-001	8.19990E-006	-8.00230E-006	1.62022E-005	-3.69000E-001	3.07706E-004	7	..........a	-327.68
	4	0.01	-3.30974E-001	-3.51433E-001	-3.41203E-001	8.26208E-006	-7.98830E-006	1.62504E-005	-3.67000E-001	2.66039E-004	7	..........a	-327.68
	5	0.012	-3.28974E-001	-3.49399E-001	-3.39187E-001	8.26525E-006	-7.96913E-006	1.62344E-005	-3.65000E-001	2.74373E-004	7	..........a	-327.68
	6	0.014	-3.26974E-001	-3.47457E-001	-3.37216E-001	8.28175E-006	-7.96297E-006	1.62447E-005	-3.63000E-001	2.41039E-004	7	..........a	-327.68
	7	0.016	-3.24991E-001	-3.45441E-001	-3.35216E-001	8.29208E-006	-7.94730E-006	1.62394E-005	-3.61000E-001	2.74373E-004	7	..........a	-327.68
	8	0.018	-3.23007E-001	-3.43491E-001	-3.33249E-001	8.29825E-006	-7.93863E-006	1.62369E-005	-3.59000E-001	2.66039E-004	7	..........a	-327.68
	9	0.02	-3.20924E-001	-3.41391E-001	-3.31158E-001	8.30442E-006	-7.93746E-006	1.62419E-005	-3.57000E-001	3.24373E-004	7	..........a	-327.68
	10	0.022	-3.19099E-001	-3.39441E-001	-3.29270E-001	8.30925E-006	-7.92563E-006	1.62349E-005	-3.55000E-001	3.57706E-004	7	..........a	-327.68
	11	0.024	-3.16891E-001	-3.37474E-001	-3.27183E-001	8.31175E-006	-7.92063E-006	1.62324E-005	-3.53000E-001	2.91039E-004	7	..........a	-327.68
	12	0.026	-3.14974E-001	-3.35407E-001	-3.25191E-001	8.32476E-006	-7.91546E-006	1.62402E-005	-3.51000E-001	2.74373E-004	7	..........a	-327.68
	13	0.028	-3.13024E-001	-3.33457E-001	-3.23241E-001	8.32542E-006	-7.91129E-006	1.62367E-005	-3.49000E-001	2.99373E-004	7	..........a	-327.68
	14	0.03	-3.10966E-001	-3.31449E-001	-3.21208E-001	8.33326E-006	-7.90212E-006	1.62354E-005	-3.47000E-001	3.49373E-004	7	..........a	-327.68
	15	0.032	-3.08916E-001	-3.29474E-001	-3.19195E-001	8.33392E-006	-7.89712E-006	1.62310E-005	-3.45000E-001	3.24373E-004	7	..........a	-327.68
	16	0.034	-3.06941E-001	-3.27441E-001	-3.17191E-001	8.33876E-006	-7.89379E-006	1.62325E-005	-3.43000E-001	2.82706E-004	7	..........a	-327.68
	17	0.036	-3.04958E-001	-3.25699E-001	-3.15328E-001	8.34259E-006	-7.89546E-006	1.62380E-005	-3.41000E-001	3.57706E-004	7	..........a	-327.68
	18	0.038	-3.02949E-001	-3.23408E-001	-3.13178E-001	8.34392E-006	-7.88295E-006	1.62269E-005	-3.39000E-001	2.82706E-004	7	..........a	-327.68
	19	0.04	-3.00966E-001	-3.21474E-001	-3.11220E-001	8.35409E-006	-7.88429E-006	1.62384E-005	-3.37000E-001	2.82706E-004	7	..........a	-327.68
	20	0.042	-2.98924E-001	-3.19441E-001	-3.09183E-001	8.34859E-006	-7.88079E-006	1.62294E-005	-3.35000E-001	3.32706E-004	7	..........a	-327.68
	21	0.044	-2.96949E-001	-3.17516E-001	-3.07232E-001	8.35359E-006	-7.87412E-006	1.62277E-005	-3.33000E-001	3.16039E-004	7	..........a	-327.68
	22	0.046	-2.94908E-001	-3.15474E-001	-3.05191E-001	8.35526E-006	-7.86945E-006	1.62247E-005	-3.31000E-001	2.49373E-004	7	..........a	-327.68
	23	0.048	-2.92924E-001	-3.13441E-001	-3.03183E-001	8.35926E-006	-7.86312E-006	1.62224E-005	-3.29000E-001	2.57706E-004	7	..........a	-327.68
	24	0.05	-2.90924E-001	-3.11507E-001	-3.01216E-001	8.36142E-006	-7.86445E-006	1.62259E-005	-3.27000E-001	2.99373E-004	7	..........a	-327.68
	25	0.052	-2.88966E-001	-3.09466E-001	-2.99216E-001	8.37026E-006	-7.85445E-006	1.62247E-005	-3.25000E-001	2.91039E-004	7	..........a	-327.68
	26	0.054	-2.87058E-001	-3.07483E-001	-2.97270E-001	8.36659E-006	-7.84762E-006	1.62142E-005	-3.23000E-001	3.07706E-004	7	..........a	-327.68
	27	0.056	-2.84957E-001	-3.05533E-001	-2.95245E-001	8.37176E-006	-7.84862E-006	1.62204E-005	-3.21000E-001	2.74373E-004	7	..........a	-327.68
	28	0.058	-2.82908E-001	-3.03483E-001	-2.93195E-001	8.37526E-006	-7.84995E-006	1.62252E-005	-3.19000E-001	2.82706E-004	7	..........a	-327.68
	29	0.06	-2.80982E-001	-3.01474E-001	-2.91228E-001	8.37159E-006	-7.84245E-006	1.62140E-005	-3.17000E-001	2.66039E-004	7	..........a	-327.68
	30	0.062	-2.78974E-001	-2.99424E-001	-2.89199E-001	8.37993E-006	-7.84128E-006	1.62212E-005	-3.15000E-001	3.32706E-004	7	..........a	-327.68
	31	0.064	-2.76924E-001	-2.97491E-001	-2.87208E-001	8.37909E-006	-7.83561E-006	1.62147E-005	-3.13000E-001	2.32706E-004	7	..........a	-327.68
	32	0.066	-2.74866E-001	-2.95483E-001	-2.85174E-001	8.38710E-006	-7.83478E-006	1.62219E-005	-3.11000E-001	3.07706E-004	7	..........a	-327.68
	33	0.068	-2.72941E-001	-2.93433E-001	-2.83187E-001	8.39110E-006	-7.82511E-006	1.62162E-005	-3.09000E-001	3.07706E-004	7	..........a	-327.68
	34	0.07	-2.70966E-001	-2.91474E-001	-2.81220E-001	8.38793E-006	-7.82428E-006	1.62122E-005	-3.07000E-001	2.66039E-004	7	..........a	-327.68
	35	0.072	-2.68957E-001	-2.89424E-001	-2.79191E-001	8.39410E-006	-7.82961E-006	1.62237E-005	-3.05000E-001	3.41039E-004	7	..........a	-327.68
	36	0.074	-2.66991E-001	-2.87483E-001	-2.77237E-001	8.39226E-006	-7.81995E-006	1.62122E-005	-3.03000E-001	2.41039E-004	7	..........a	-327.68
	37	0.076	-2.65016E-001	-2.85416E-001	-2.75216E-001	8.39210E-006	-7.81611E-006	1.62082E-005	-3.01000E-001	2.57706E-004	7	..........a	-327.68
	38	0.078	-2.62924E-001	-2.83616E-001	-2.73270E-001	8.39860E-006	-7.81228E-006	1.62109E-005	-2.99000E-001	2.74373E-004	7	..........a	-327.68
	39	0.08	-2.60916E-001	-2.81466E-001	-2.71191E-001	8.40193E-006	-7.80661E-006	1.62085E-005	-2.97000E-001	2.99373E-004	7	..........a	-327.68
	40	0.082	-2.58924E-001	-2.79449E-001	-2.69187E-001	8.39976E-006	-7.80794E-006	1.62077E-005	-2.95000E-001	3.32706E-004	7	..........a	-327.68
	41	0.084	-2.56932E-001	-2.77483E-001	-2.67208E-001	8.40226E-006	-7.80078E-006	1.62030E-005	-2.93000E-001	3.57706E-004	7	..........a	-327.68
	42	0.086	-2.54916E-001	-2.75574E-001	-2.65245E-001	8.40160E-006	-7.80178E-006	1.62034E-005	-2.91000E-001	2.99373E-004	7	..........a	-327.68
	43	0.088	-2.52957E-001	-2.73508E-001	-2.63232E-001	8.40660E-006	-7.79528E-006	1.62019E-005	-2.89000E-001	2.99373E-004	7	..........a	-327.68
	44	0.09	-2.50982E-001	-2.71441E-001	-2.61212E-001	8.41027E-006	-7.79144E-006	1.62017E-005	-2.87000E-001	2.82706E-004	7	..........a	-327.68
	45	0.092	-2.48983E-001	-2.69499E-001	-2.59241E-001	8.41110E-006	-7.79194E-006	1.62030E-005	-2.85000E-001	2.74373E-004	7	..........a	-327.68
	46	0.094	-2.46924E-001	-2.67532E-001	-2.57228E-001	8.41427E-006	-7.78911E-006	1.62034E-005	-2.83000E-001	2.74373E-004	7	..........a	-327.68
	47	0.096	-2.44908E-001	-2.65516E-001	-2.55212E-001	8.41310E-006	-7.78577E-006	1.61989E-005	-2.81000E-001	3.24373E-004	7	..........a	-327.68
	48	0.098	-2.43041E-001	-2.63483E-001	-2.53262E-001	8.41993E-006	-7.78077E-006	1.62007E-005	-2.79000E-001	2.82706E-004	7	..........a	-327.68
	49	0.1	-2.40924E-001	-2.61407E-001	-2.51166E-001	8.41943E-006	-7.77844E-006	1.61979E-005	-2.77000E-001	3.07706E-004	7	..........a	-327.68
	50	0.102	-2.38916E-001	-2.59483E-001	-2.49199E-001	8.41760E-006	-7.77194E-006	1.61895E-005	-2.75000E-001	2.99373E-004	7	..........a	-327.68
	51	0.104	-2.36924E-001	-2.57449E-001	-2.47187E-001	8.42327E-006	-7.76744E-006	1.61907E-005	-2.73000E-001	2.66039E-004	7	..........a	-327.68
	52	0.106	-2.34974E-001	-2.55541E-001	-2.45258E-001	8.42110E-006	-7.76760E-006	1.61887E-005	-2.71000E-001	3.24373E-004	7	..........a	-327.68
	53	0.108	-2.32874E-001	-2.53491E-001	-2.43183E-001	8.42410E-006	-7.77011E-006	1.61942E-005	-2.69000E-001	3.24373E-004	7	..........a	-327.68
	54	0.11	-2.30883E-001	-2.51532E-001	-2.41208E-001	8.42477E-006	-7.76527E-006	1.61900E-005	-2.67000E-001	2.66039E-004	7	..........a	-327.68
	55	0.112	-2.29049E-001	-2.49558E-001	-2.39303E-001	8.42577E-006	-7.76227E-006	1.61880E-005	-2.65000E-001	2.74373E-004	7	..........a	-327.68
	56	0.114	-2.26908E-001	-2.47533E-001	-2.37220E-001	8.43127E-006	-7.76460E-006	1.61959E-005	-2.63000E-001	2.41039E-004	7	..........a	-327.68
	57	0.116	-2.24891E-001	-2.45458E-001	-2.35174E-001	8.43594E-006	-7.75377E-006	1.61897E-005	-2.61000E-001	3.49373E-004	7	..........a	-327.68
	58	0.118	-2.22908E-001	-2.43499E-001	-2.33203E-001	8.43144E-006	-7.75144E-006	1.61829E-005	-2.59000E-001	3.41039E-004	7	..........a	-327.68
	59	0.12	-2.20924E-001	-2.41491E-001	-2.31208E-001	8.43477E-006	-7.75377E-006	1.61885E-005	-2.57000E-001	3.07706E-004	7	..........a	-327.68
	60	0.122	-2.18916E-001	-2.39508E-001	-2.29212E-001	8.43744E-006	-7.75294E-006	1.61904E-005	-2.55000E-001	3.41039E-004	7	..........a	-327.68
	61	0.124	-2.16924E-001	-2.37508E-001	-2.27216E-001	8.43677E-006	-7.74644E-006	1.61832E-005	-2.53000E-001	2.99373E-004	7	..........a	-327.68
	62	0.126	-2.14908E-001	-2.35541E-001	-2.25224E-001	8.44010E-006	-7.74527E-006	1.61854E-005	-2.51000E-001	3.49373E-004	7	..........a	-327.68
	63	0.128	-2.12941E-001	-2.33599E-001	-2.23270E-001	8.43577E-006	-7.74344E-006	1.61792E-005	-2.49000E-001	2.74373E-004	7	..........a	-327.68
	64	0.13	-2.10858E-001	-2.31466E-001	-2.21162E-001	8.44110E-006	-7.74427E-006	1.61854E-005	-2.47000E-001	3.16039E-004	7	..........a	-327.68
	65	0.132	-2.08841E-001	-2.29483E-001	-2.19162E-001	8.43944E-006	-7.74060E-006	1.61800E-005	-2.45000E-001	3.41039E-004	7	..........a	-327.68
	66	0.134	-2.06874E-001	-2.27566E-001	-2.17220E-001	8.44310E-006	-7.74194E-006	1.61850E-005	-2.43000E-001	2.66039E-004	7	..........a	-327.68
	67	0.136	-2.04908E-001	-2.25658E-001	-2.15283E-001	8.44560E-006	-7.74210E-006	1.61877E-005	-2.41000E-001	2.91039E-004	7	..........a	-327.68
	68	0.138	-2.02916E-001	-2.23533E-001	-2.13224E-001	8.44277E-006	-7.73593E-006	1.61787E-005	-2.39000E-001	3.24373E-004	7	..........a	-327.68
	69	0.14	-2.00908E-001	-2.21558E-001	-2.11233E-001	8.44994E-006	-7.73427E-006	1.61842E-005	-2.37000E-001	2.91039E-004	7	..........a	-327.68
	70	0.142	-1.98899E-001	-2.19499E-001	-2.09199E-001	8.44810E-006	-7.73393E-006	1.61820E-005	-2.35000E-001	3.24373E-004	7	..........a	-327.68
	71	0.144	-1.96883E-001	-2.17516E-001	-2.07199E-001	8.44744E-006	-7.73893E-006	1.61864E-005	-2.33000E-001	3.07706E-004	7	..........a	-327.68
	72	0.146	-1.94908E-001	-2.15641E-001	-2.05274E-001	8.44777E-006	-7.73243E-006	1.61802E-005	-2.31000E-001	2.91039E-004	7	..........a	-327.68
	73	0.148	-1.92891E-001	-2.13491E-001	-2.03191E-001	8.45477E-006	-7.72893E-006	1.61837E-005	-2.29000E-001	2.91039E-004	7	..........a	-327.68
	74	0.15	-1.90791E-001	-2.11533E-001	-2.01162E-001	8.45294E-006	-7.73610E-006	1.61890E-005	-2.27000E-001	2.66039E-004	7	..........a	-327.68
	75	0.152	-1.88874E-001	-2.09541E-001	-1.99208E-001	8.45594E-006	-7.72577E-006	1.61817E-005	-2.25000E-001	3.32706E-004	7	..........a	-327.68
	76	0.154	-1.86866E-001	-2.07466E-001	-1.97166E-001	8.45127E-006	-7.72160E-006	1.61729E-005	-2.23000E-001	2.91039E-004	7	..........a	-327.68
	77	0.156	-1.84841E-001	-2.05458E-001	-1.95149E-001	8.45761E-006	-7.72743E-006	1.61850E-005	-2.21000E-001	2.82706E-004	7	..........a	-327.68
	78	0.158	-1.82808E-001	-2.03533E-001	-1.93170E-001	8.45511E-006	-7.72827E-006	1.61834E-005	-2.19000E-001	3.24373E-004	7	..........a	-327.68
	79	0.16	-1.80866E-001	-2.01524E-001	-1.91195E-001	8.45211E-006	-7.72643E-006	1.61785E-005	-2.17000E-001	2.91039E-004	7	..........a	-327.68
	80	0.162	-1.78841E-001	-1.99491E-001	-1.89166E-001	8.46261E-006	-7.72510E-006	1.61877E-005	-2.15000E-001	2.41039E-004	7	..........a	-327.68
	81	0.164	-1.76866E-001	-1.97558E-001	-1.87212E-001	8.45744E-006	-7.72143E-006	1.61789E-005	-2.13000E-001	2.91039E-004	7	..........a	-327.68
	82	0.166	-1.74849E-001	-1.95516E-001	-1.85183E-001	8.46277E-006	-7.72327E-006	1.61860E-005	-2.11000E-001	2.66039E-004	7	..........a	-327.68
	83	0.168	-1.72824E-001	-1.93549E-001	-1.83187E-001	8.45927E-006	-7.72477E-006	1.61840E-005	-2.09000E-001	2.32706E-004	7	..........a	-327.68
	84	0.17	-1.70874E-001	-1.91499E-001	-1.81187E-001	8.46011E-006	-7.72227E-006	1.61824E-005	-2.07000E-001	3.07706E-004	7	..........a	-327.68
	85	0.172	-1.68841E-001	-1.89533E-001	-1.79187E-001	8.46644E-006	-7.72360E-006	1.61900E-005	-2.05000E-001	2.99373E-004	7	..........a	-327.68
	86	0.174	-1.66858E-001	-1.87541E-001	-1.77199E-001	8.46294E-006	-7.71727E-006	1.61802E-005	-2.03000E-001	2.66039E-004	7	..........a	-327.68
	87	0.176	-1.64849E-001	-1.85491E-001	-1.75170E-001	8.46477E-006	-7.71776E-006	1.61825E-005	-2.01000E-001	3.57706E-004	7	..........a	-327.68
	88	0.178	-1.62858E-001	-1.83641E-001	-1.73249E-001	8.46827E-006	-7.71493E-006	1.61832E-005	-1.99000E-001	2.66039E-004	7	..........a	-327.68
	89	0.18	-1.60858E-001	-1.81533E-001	-1.71195E-001	8.46611E-006	-7.71660E-006	1.61827E-005	-1.97000E-001	3.07706E-004	7	..........a	-327.68
	90	0.182	-1.58841E-001	-1.79483E-001	-1.69162E-001	8.46994E-006	-7.71510E-006	1.61850E-005	-1.95000E-001	2.57706E-004	7	..........a	-327.68
	91	0.184	-1.56916E-001	-1.77558E-001	-1.67237E-001	8.47344E-006	-7.71543E-006	1.61889E-005	-1.93000E-001	2.74373E-004	7	..........a	-327.68
	92	0.186	-1.54858E-001	-1.75683E-001	-1.65270E-001	8.47127E-006	-7.71793E-006	1.61892E-005	-1.91000E-001	3.66039E-004	7	..........a	-327.68
	93	0.188	-1.52949E-001	-1.73508E-001	-1.63228E-001	8.46977E-006	-7.71010E-006	1.61799E-005	-1.89000E-001	3.57706E-004	7	..........a	-327.68
	94	0.19	-1.50866E-001	-1.71508E-001	-1.61187E-001	8.47228E-006	-7.71060E-006	1.61829E-005	-1.87000E-001	2.49373E-004	7	..........a	-327.68
	95	0.192	-1.48883E-001	-1.69541E-001	-1.59212E-001	8.47311E-006	-7.71043E-006	1.61835E-005	-1.85000E-001	3.16039E-004	7	..........a	-327.68
	96	0.194	-1.46883E-001	-1.67474E-001	-1.57178E-001	8.47694E-006	-7.71493E-006	1.61919E-005	-1.83000E-001	2.91039E-004	7	..........a	-327.68
	97	0.196	-1.44966E-001	-1.65483E-001	-1.55224E-001	8.47211E-006	-7.70843E-006	1.61805E-005	-1.81000E-001	2.57706E-004	7	..........a	-327.68
	98	0.198	-1.42849E-001	-1.63483E-001	-1.53166E-001	8.47961E-006	-7.70610E-006	1.61857E-005	-1.79000E-001	2.82706E-004	7	..........a	-327.68
	99	0.2	-1.40858E-001	-1.61541E-001	-1.51199E-001	8.47894E-006	-7.70710E-006	1.61860E-005	-1.77000E-001	2.66039E-004	7	..........a	-327.68
	100	0.202	-1.38766E-001	-1.59474E-001	-1.49120E-001	8.48261E-006	-7.70460E-006	1.61872E-005	-1.75000E-001	3.32706E-004	7	..........a	-327.68
