EXPLAIN
TAG	SQUARE_WAVE
TITLE	LABEL	Square Wave Voltammetry	Test Identifier
DATE	LABEL	8/10/2020	Date
TIME	LABEL	19:30:52	Time
NOTES	NOTES	1	Notes...
	
PSTAT	PSTAT	REF600-24079	Potentiostat
VINIT	QUANT	-3.50000E-001	Initial E (V)
VFINAL	QUANT	-1.50000E-001	Final E (V)
STEPSIZE	QUANT	2.00000E+000	Step Size (mV)
TIMERRES	QUANT	3.33340E-005	&Timer Resolution
FREQUENCY	QUANT	2.50000E+001	Frequency (Hz)
PULSESIZE	QUANT	2.50000E+001	Pulse Size E (mV)
PULSEON	QUANT	4.00000E-002	Pulse &Time (s)
NOISEREJECT	TOGGLE	F	Noise Rejection
AREA	QUANT	2.00000E-002	Sample Area (cm^2)
IMODE	SELECTOR	1	I/E Range Mode
IRANGE	QUANT	1.00000E-003	Max Current (mA)
EQDELAY	IQUANT	10	Equil. Time (s)
IRCOMP	SELECTOR	0	IRComp
PFCOR	QUANT	5.00000E+001	PF Corr. (ohm)
CYCLES	IQUANT	101	C&ycles (#)
ELECTRODETYPE	SELECTOR	0	Electrode Type
STRIPPING	TOGGLE	F	Used for Stripping
POLARITY	TOGGLE	F	Signal Polarity
LINEFREQ	IQUANT	60	Line Frequency (Hz)
INTPERIOD	QUANT	3.3334E-005	Integration Period (s)
SEQUENCER	TOGGLE	TRUE	Run as Sequence
PSTATMODEL	IQUANT	4	Pstat Model
PSTATSECTION	LABEL	REF600-24079	Pstat Section
PSTATSERIALNO	LABEL	24079	Pstat Serial Number
CTRLMODE	IQUANT	1	Control Mode
ELECTROMETER	IQUANT	0	RE=0 or CS=1
IESTAB	IQUANT	2	I/E Stability
CASPEED	IQUANT	6	Control Amp Speed
CONVENTION	IQUANT	1	Current Convention
ICHRANGE	IQUANT	2	Ich Range
ICHRANGEMODE	TOGGLE	F	Ich Auto Range
ICHOFFSETENABLE	TOGGLE	F	Ich Offset Enable
ICHOFFSET	QUANT	0	Ich Offset (V)
ICHFILTER	IQUANT	2	Ich Filter
VCHRANGE	IQUANT	2	Vch Range
VCHRANGEMODE	TOGGLE	F	Vch Auto Range
VCHOFFSETENABLE	TOGGLE	F	Vch Offset Enable
VCHOFFSET	QUANT	0	Vch Offset (V)
VCHFILTER	IQUANT	2	Vch Filter
ACHRANGE	IQUANT	2	Ach Range
ACHOFFSETENABLE	TOGGLE	F	Ach Offset Enable
ACHOFFSET	QUANT	0	Ach Offset (V)
ACHFILTER	IQUANT	1	Ach Filter
IERANGELOWERLIMIT	IQUANT	1	I/E Range Lower Limit
IERANGEMODE	TOGGLE	F	I/E AutoRange
IERANGE	IQUANT	6	I/E Range
POSFEEDENABLE	TOGGLE	F	Positive Feedback IR Comp
POSFEEDRESISTANCE	QUANT	0	Positive Feedback Resistance (ohm)
ACHSELECT	IQUANT	0	Ach Select
SENSECABLEID	IQUANT	13	Sense Cable ID
PWRCABLEID	IQUANT	13	Power Cable ID
DCCALDATE	LABEL	6/30/2020	DC Calibration Date
ACCALDATE	LABEL	6/30/2020	AC Calibration Date
THERMOSELECT	IQUANT	1	Thermo Select
FRAMEWORKVERSION	LABEL	7.8.2	Framework Version
INSTRUMENTVERSION	LABEL	4.40	Instrument Version
CURVE	TABLE	101
	Pt	T	Vfwd	Vrev	Vstep	Ifwd	Irev	Idif	Sig	Ach	IERange	Over	Temp
	#	s	V	V	V	A	A	A	V	V	#	bits	deg C
	0	0.04	-3.24878E-001	-3.75534E-001	-3.50206E-001	-9.62133E-008	-2.83454E-007	1.87240E-007	-3.75000E-001	3.78539E-004	6	..........a	-327.68
	1	0.08	-3.22176E-001	-3.73546E-001	-3.47861E-001	-4.48749E-009	-2.69494E-007	2.65006E-007	-3.73000E-001	3.68123E-004	6	..........a	-327.68
	2	0.12	-3.20183E-001	-3.71539E-001	-3.45861E-001	1.59912E-009	-2.62325E-007	2.63924E-007	-3.71000E-001	3.63123E-004	6	..........a	-327.68
	3	0.16	-3.18107E-001	-3.69441E-001	-3.43774E-001	7.31151E-009	-2.56680E-007	2.63991E-007	-3.69000E-001	3.56873E-004	6	..........a	-327.68
	4	0.2	-3.16219E-001	-3.67543E-001	-3.41881E-001	9.43012E-009	-2.53329E-007	2.62759E-007	-3.67000E-001	3.46456E-004	6	..........a	-327.68
	5	0.24	-3.14201E-001	-3.65571E-001	-3.39886E-001	1.21971E-008	-2.47882E-007	2.60079E-007	-3.65000E-001	3.58956E-004	6	..........a	-327.68
	6	0.28	-3.12158E-001	-3.63543E-001	-3.37850E-001	1.46099E-008	-2.44383E-007	2.58993E-007	-3.63000E-001	3.70206E-004	6	..........a	-327.68
	7	0.32	-3.10129E-001	-3.61479E-001	-3.35804E-001	1.63702E-008	-2.40763E-007	2.57133E-007	-3.61000E-001	3.73123E-004	6	..........a	-327.68
	8	0.36	-3.08178E-001	-3.59522E-001	-3.33850E-001	1.97381E-008	-2.36917E-007	2.56655E-007	-3.59000E-001	3.84373E-004	6	..........a	-327.68
	9	0.4	-3.06227E-001	-3.57576E-001	-3.31901E-001	2.06107E-008	-2.34492E-007	2.55102E-007	-3.57000E-001	3.71456E-004	6	..........a	-327.68
	10	0.44	-3.04191E-001	-3.55548E-001	-3.29870E-001	2.29927E-008	-2.29118E-007	2.52110E-007	-3.55000E-001	3.63956E-004	6	..........a	-327.68
	11	0.48	-3.02152E-001	-3.53509E-001	-3.27831E-001	2.54913E-008	-2.27815E-007	2.53306E-007	-3.53000E-001	3.48956E-004	6	..........a	-327.68
	12	0.52	-3.00195E-001	-3.51533E-001	-3.25864E-001	2.68198E-008	-2.24295E-007	2.51114E-007	-3.51000E-001	3.48123E-004	6	..........a	-327.68
	13	0.56	-2.98190E-001	-3.49543E-001	-3.23867E-001	2.95710E-008	-2.20911E-007	2.50482E-007	-3.49000E-001	3.66456E-004	6	..........a	-327.68
	14	0.6	-2.96194E-001	-3.47553E-001	-3.21873E-001	3.06595E-008	-2.18959E-007	2.49618E-007	-3.47000E-001	3.73123E-004	6	..........a	-327.68
	15	0.64	-2.94138E-001	-3.45513E-001	-3.19825E-001	3.24981E-008	-2.14729E-007	2.47227E-007	-3.45000E-001	3.69789E-004	6	..........a	-327.68
	16	0.68	-2.92210E-001	-3.43528E-001	-3.17869E-001	3.50842E-008	-2.12481E-007	2.47566E-007	-3.43000E-001	3.64789E-004	6	..........a	-327.68
	17	0.72	-2.90216E-001	-3.41577E-001	-3.15896E-001	3.60077E-008	-2.09329E-007	2.45336E-007	-3.41000E-001	3.56873E-004	6	..........a	-327.68
	18	0.76	-2.88185E-001	-3.39541E-001	-3.13863E-001	3.90639E-008	-2.06727E-007	2.45791E-007	-3.39000E-001	3.76039E-004	6	..........a	-327.68
	19	0.8	-2.86127E-001	-3.37485E-001	-3.11806E-001	4.03674E-008	-2.04920E-007	2.45287E-007	-3.37000E-001	3.53539E-004	6	..........a	-327.68
	20	0.84	-2.84192E-001	-3.35516E-001	-3.09854E-001	4.16492E-008	-2.00568E-007	2.42217E-007	-3.35000E-001	3.81456E-004	6	..........a	-327.68
	21	0.88	-2.82183E-001	-3.33544E-001	-3.07863E-001	4.39503E-008	-1.99395E-007	2.43345E-007	-3.33000E-001	3.81873E-004	6	..........a	-327.68
	22	0.92	-2.80190E-001	-3.31548E-001	-3.05869E-001	4.48771E-008	-1.96234E-007	2.41112E-007	-3.31000E-001	3.57706E-004	6	..........a	-327.68
	23	0.96	-2.78148E-001	-3.29492E-001	-3.03820E-001	4.79433E-008	-1.93777E-007	2.41720E-007	-3.29000E-001	3.64373E-004	6	..........a	-327.68
	24	1	-2.76204E-001	-3.27529E-001	-3.01867E-001	4.88810E-008	-1.92501E-007	2.41382E-007	-3.27000E-001	3.54789E-004	6	..........a	-327.68
	25	1.04	-2.74193E-001	-3.25538E-001	-2.99866E-001	5.08729E-008	-1.88938E-007	2.39811E-007	-3.25000E-001	3.68539E-004	6	..........a	-327.68
	26	1.08	-2.72186E-001	-3.23529E-001	-2.97857E-001	5.30307E-008	-1.87707E-007	2.40738E-007	-3.23000E-001	3.68539E-004	6	..........a	-327.68
	27	1.12	-2.70175E-001	-3.21532E-001	-2.95853E-001	5.40741E-008	-1.85878E-007	2.39952E-007	-3.21000E-001	3.59373E-004	6	..........a	-327.68
	28	1.16	-2.68233E-001	-3.19515E-001	-2.93874E-001	5.70245E-008	-1.82857E-007	2.39881E-007	-3.19000E-001	3.71456E-004	6	..........a	-327.68
	29	1.2	-2.66227E-001	-3.17558E-001	-2.91892E-001	5.78846E-008	-1.81794E-007	2.39679E-007	-3.17000E-001	3.52706E-004	6	..........a	-327.68
	30	1.24	-2.64215E-001	-3.15570E-001	-2.89892E-001	5.96748E-008	-1.78393E-007	2.38068E-007	-3.15000E-001	3.53123E-004	6	..........a	-327.68
	31	1.28	-2.62150E-001	-3.13515E-001	-2.87832E-001	6.14176E-008	-1.78186E-007	2.39604E-007	-3.13000E-001	3.53956E-004	6	..........a	-327.68
	32	1.32	-2.60209E-001	-3.11529E-001	-2.85869E-001	6.24510E-008	-1.75950E-007	2.38401E-007	-3.11000E-001	3.68123E-004	6	..........a	-327.68
	33	1.36	-2.58204E-001	-3.09536E-001	-2.83870E-001	6.56873E-008	-1.73881E-007	2.39568E-007	-3.09000E-001	3.69373E-004	6	..........a	-327.68
	34	1.4	-2.56186E-001	-3.07536E-001	-2.81861E-001	6.63790E-008	-1.72820E-007	2.39199E-007	-3.07000E-001	3.69373E-004	6	..........a	-327.68
	35	1.44	-2.54148E-001	-3.05498E-001	-2.79823E-001	6.80584E-008	-1.70131E-007	2.38189E-007	-3.05000E-001	3.68123E-004	6	..........a	-327.68
	36	1.48	-2.52208E-001	-3.03541E-001	-2.77874E-001	6.92336E-008	-1.69439E-007	2.38673E-007	-3.03000E-001	3.71039E-004	6	..........a	-327.68
	37	1.52	-2.50219E-001	-3.01550E-001	-2.75885E-001	7.01870E-008	-1.67414E-007	2.37601E-007	-3.01000E-001	3.68956E-004	6	..........a	-327.68
	38	1.56	-2.48209E-001	-2.99550E-001	-2.73879E-001	7.29707E-008	-1.65576E-007	2.38547E-007	-2.99000E-001	3.69373E-004	6	..........a	-327.68
	39	1.6	-2.46180E-001	-2.97533E-001	-2.71856E-001	7.27140E-008	-1.65190E-007	2.37904E-007	-2.97000E-001	3.70206E-004	6	..........a	-327.68
	40	1.64	-2.44208E-001	-2.95543E-001	-2.69876E-001	7.52527E-008	-1.62133E-007	2.37386E-007	-2.95000E-001	3.64789E-004	6	..........a	-327.68
	41	1.68	-2.42245E-001	-2.93574E-001	-2.67910E-001	7.63620E-008	-1.62018E-007	2.38379E-007	-2.93000E-001	3.59373E-004	6	..........a	-327.68
	42	1.72	-2.40184E-001	-2.91556E-001	-2.65870E-001	7.62561E-008	-1.60359E-007	2.36615E-007	-2.91000E-001	3.68123E-004	6	..........a	-327.68
	43	1.76	-2.38171E-001	-2.89516E-001	-2.63844E-001	7.88073E-008	-1.58356E-007	2.37163E-007	-2.89000E-001	3.84373E-004	6	..........a	-327.68
	44	1.8	-2.36208E-001	-2.87538E-001	-2.61873E-001	7.86698E-008	-1.57949E-007	2.36618E-007	-2.87000E-001	3.45623E-004	6	..........a	-327.68
	45	1.84	-2.34204E-001	-2.85546E-001	-2.59875E-001	8.00024E-008	-1.55266E-007	2.35268E-007	-2.85000E-001	3.67289E-004	6	..........a	-327.68
	46	1.88	-2.32195E-001	-2.83528E-001	-2.57861E-001	8.05700E-008	-1.54517E-007	2.35087E-007	-2.83000E-001	3.63539E-004	6	..........a	-327.68
	47	1.92	-2.30153E-001	-2.81479E-001	-2.55816E-001	8.09009E-008	-1.52861E-007	2.33761E-007	-2.81000E-001	3.75623E-004	6	..........a	-327.68
	48	1.96	-2.28215E-001	-2.79530E-001	-2.53873E-001	8.27436E-008	-1.51426E-007	2.34170E-007	-2.79000E-001	3.53123E-004	6	..........a	-327.68
	49	2	-2.26217E-001	-2.77537E-001	-2.51877E-001	8.19410E-008	-1.50812E-007	2.32753E-007	-2.77000E-001	3.66039E-004	6	..........a	-327.68
	50	2.04	-2.24205E-001	-2.75532E-001	-2.49868E-001	8.34654E-008	-1.47801E-007	2.31266E-007	-2.75000E-001	3.72706E-004	6	..........a	-327.68
	51	2.08	-2.22155E-001	-2.73498E-001	-2.47826E-001	8.39263E-008	-1.47060E-007	2.30986E-007	-2.73000E-001	3.56039E-004	6	..........a	-327.68
	52	2.12	-2.20196E-001	-2.71520E-001	-2.45858E-001	8.37412E-008	-1.45397E-007	2.29138E-007	-2.71000E-001	3.55206E-004	6	..........a	-327.68
	53	2.16	-2.18191E-001	-2.69523E-001	-2.43857E-001	8.50114E-008	-1.44023E-007	2.29034E-007	-2.69000E-001	3.67706E-004	6	..........a	-327.68
	54	2.2	-2.16145E-001	-2.67548E-001	-2.41847E-001	8.47355E-008	-1.43459E-007	2.28195E-007	-2.67000E-001	3.57289E-004	6	..........a	-327.68
	55	2.24	-2.14141E-001	-2.65469E-001	-2.39805E-001	8.58723E-008	-1.40705E-007	2.26577E-007	-2.65000E-001	3.71873E-004	6	..........a	-327.68
	56	2.28	-2.12209E-001	-2.63556E-001	-2.37882E-001	8.59223E-008	-1.40840E-007	2.26762E-007	-2.63000E-001	3.61456E-004	6	..........a	-327.68
	57	2.32	-2.10207E-001	-2.61541E-001	-2.35874E-001	8.58707E-008	-1.38013E-007	2.23883E-007	-2.61000E-001	3.61456E-004	6	..........a	-327.68
	58	2.36	-2.08176E-001	-2.59535E-001	-2.33856E-001	8.70017E-008	-1.37177E-007	2.24179E-007	-2.59000E-001	3.66039E-004	6	..........a	-327.68
	59	2.4	-2.06142E-001	-2.57487E-001	-2.31814E-001	8.61432E-008	-1.36288E-007	2.22431E-007	-2.57000E-001	3.48956E-004	6	..........a	-327.68
	60	2.44	-2.04230E-001	-2.55536E-001	-2.29883E-001	8.78968E-008	-1.33346E-007	2.21243E-007	-2.55000E-001	3.77289E-004	6	..........a	-327.68
	61	2.48	-2.02215E-001	-2.53538E-001	-2.27876E-001	8.70150E-008	-1.32970E-007	2.19985E-007	-2.53000E-001	3.73539E-004	6	..........a	-327.68
	62	2.52	-2.00203E-001	-2.51541E-001	-2.25872E-001	8.68975E-008	-1.31341E-007	2.18239E-007	-2.51000E-001	3.62706E-004	6	..........a	-327.68
	63	2.56	-1.98161E-001	-2.49503E-001	-2.23832E-001	8.82551E-008	-1.30168E-007	2.18423E-007	-2.49000E-001	3.76873E-004	6	..........a	-327.68
	64	2.6	-1.96209E-001	-2.47522E-001	-2.21865E-001	8.74092E-008	-1.29141E-007	2.16550E-007	-2.47000E-001	3.35206E-004	6	..........a	-327.68
	65	2.64	-1.94192E-001	-2.45526E-001	-2.19859E-001	8.85135E-008	-1.26398E-007	2.14911E-007	-2.45000E-001	3.84789E-004	6	..........a	-327.68
	66	2.68	-1.92202E-001	-2.43517E-001	-2.17860E-001	8.81760E-008	-1.26471E-007	2.14646E-007	-2.43000E-001	3.76873E-004	6	..........a	-327.68
	67	2.72	-1.90108E-001	-2.41438E-001	-2.15773E-001	8.83093E-008	-1.23973E-007	2.12282E-007	-2.41000E-001	3.63956E-004	6	..........a	-327.68
	68	2.76	-1.88226E-001	-2.39524E-001	-2.13875E-001	8.93961E-008	-1.23329E-007	2.12725E-007	-2.39000E-001	3.75206E-004	6	..........a	-327.68
	69	2.8	-1.86216E-001	-2.37536E-001	-2.11876E-001	8.88027E-008	-1.22487E-007	2.11290E-007	-2.37000E-001	3.63123E-004	6	..........a	-327.68
	70	2.84	-1.84166E-001	-2.35518E-001	-2.09842E-001	8.91694E-008	-1.20191E-007	2.09361E-007	-2.35000E-001	3.67706E-004	6	..........a	-327.68
	71	2.88	-1.82128E-001	-2.33476E-001	-2.07802E-001	8.92153E-008	-1.19697E-007	2.08912E-007	-2.33000E-001	3.72289E-004	6	..........a	-327.68
	72	2.92	-1.80183E-001	-2.31504E-001	-2.05843E-001	8.90727E-008	-1.17867E-007	2.06940E-007	-2.31000E-001	3.65623E-004	6	..........a	-327.68
	73	2.96	-1.78213E-001	-2.29546E-001	-2.03879E-001	9.04096E-008	-1.17179E-007	2.07589E-007	-2.29000E-001	3.54373E-004	6	..........a	-327.68
	74	3	-1.76164E-001	-2.27516E-001	-2.01840E-001	8.95511E-008	-1.16018E-007	2.05569E-007	-2.27000E-001	3.52289E-004	6	..........a	-327.68
	75	3.04	-1.74149E-001	-2.25496E-001	-1.99822E-001	9.08788E-008	-1.14486E-007	2.05364E-007	-2.25000E-001	3.62289E-004	6	..........a	-327.68
	76	3.08	-1.72188E-001	-2.23512E-001	-1.97850E-001	9.06271E-008	-1.13826E-007	2.04453E-007	-2.23000E-001	3.54789E-004	6	..........a	-327.68
	77	3.12	-1.70196E-001	-2.21523E-001	-1.95860E-001	9.03121E-008	-1.11899E-007	2.02212E-007	-2.21000E-001	3.72289E-004	6	..........a	-327.68
	78	3.16	-1.68192E-001	-2.19508E-001	-1.93850E-001	9.17081E-008	-1.11899E-007	2.03608E-007	-2.19000E-001	3.75623E-004	6	..........a	-327.68
	79	3.2	-1.66130E-001	-2.17500E-001	-1.91815E-001	9.10847E-008	-1.10780E-007	2.01865E-007	-2.17000E-001	3.58123E-004	6	..........a	-327.68
	80	3.24	-1.64198E-001	-2.15515E-001	-1.89857E-001	9.23415E-008	-1.09142E-007	2.01484E-007	-2.15000E-001	3.54373E-004	6	..........a	-327.68
	81	3.28	-1.62216E-001	-2.13539E-001	-1.87877E-001	9.20998E-008	-1.08999E-007	2.01099E-007	-2.13000E-001	3.50206E-004	6	..........a	-327.68
	82	3.32	-1.60188E-001	-2.11522E-001	-1.85855E-001	9.20790E-008	-1.06825E-007	1.98904E-007	-2.11000E-001	3.76039E-004	6	..........a	-327.68
	83	3.36	-1.58130E-001	-2.09468E-001	-1.83799E-001	9.35092E-008	-1.06290E-007	1.99799E-007	-2.09000E-001	3.69373E-004	6	..........a	-327.68
	84	3.4	-1.56191E-001	-2.07503E-001	-1.81847E-001	9.27399E-008	-1.05745E-007	1.98484E-007	-2.07000E-001	3.62706E-004	6	..........a	-327.68
	85	3.44	-1.54181E-001	-2.05531E-001	-1.79856E-001	9.46035E-008	-1.03983E-007	1.98587E-007	-2.05000E-001	3.62706E-004	6	..........a	-327.68
	86	3.48	-1.52181E-001	-2.03530E-001	-1.77855E-001	9.46868E-008	-1.04255E-007	1.98942E-007	-2.03000E-001	3.49373E-004	6	..........a	-327.68
	87	3.52	-1.50134E-001	-2.01501E-001	-1.75817E-001	9.42993E-008	-1.02436E-007	1.96735E-007	-2.01000E-001	3.59373E-004	6	..........a	-327.68
	88	3.56	-1.48197E-001	-1.99528E-001	-1.73863E-001	9.53644E-008	-1.02315E-007	1.97679E-007	-1.99000E-001	3.71873E-004	6	..........a	-327.68
	89	3.6	-1.46182E-001	-1.97521E-001	-1.71851E-001	9.51827E-008	-1.01642E-007	1.96825E-007	-1.97000E-001	3.55206E-004	6	..........a	-327.68
	90	3.64	-1.44188E-001	-1.95525E-001	-1.69857E-001	9.63228E-008	-1.00130E-007	1.96453E-007	-1.95000E-001	3.55623E-004	6	..........a	-327.68
	91	3.68	-1.42168E-001	-1.93506E-001	-1.67837E-001	9.62878E-008	-1.00127E-007	1.96415E-007	-1.93000E-001	3.36873E-004	6	..........a	-327.68
	92	3.72	-1.40218E-001	-1.91506E-001	-1.65862E-001	9.66570E-008	-9.86311E-008	1.95288E-007	-1.91000E-001	3.66039E-004	6	..........a	-327.68
	93	3.76	-1.38214E-001	-1.89566E-001	-1.63890E-001	9.79205E-008	-9.85044E-008	1.96425E-007	-1.89000E-001	3.72706E-004	6	..........a	-327.68
	94	3.8	-1.36187E-001	-1.87536E-001	-1.61862E-001	9.70971E-008	-9.80336E-008	1.95131E-007	-1.87000E-001	3.58123E-004	6	..........a	-327.68
	95	3.84	-1.34147E-001	-1.85506E-001	-1.59826E-001	9.93991E-008	-9.65117E-008	1.95911E-007	-1.85000E-001	3.66873E-004	6	..........a	-327.68
	96	3.88	-1.32175E-001	-1.83503E-001	-1.57839E-001	9.85215E-008	-9.66659E-008	1.95187E-007	-1.83000E-001	3.55623E-004	6	..........a	-327.68
	97	3.92	-1.30187E-001	-1.81532E-001	-1.55860E-001	9.91840E-008	-9.50849E-008	1.94269E-007	-1.81000E-001	3.51456E-004	6	..........a	-327.68
	98	3.96	-1.28132E-001	-1.79513E-001	-1.53823E-001	1.00338E-007	-9.51174E-008	1.95456E-007	-1.79000E-001	3.60623E-004	6	..........a	-327.68
	99	4	-1.26140E-001	-1.77468E-001	-1.51804E-001	9.96983E-008	-9.52232E-008	1.94921E-007	-1.77000E-001	3.54789E-004	6	..........a	-327.68
	100	4.04	-1.24187E-001	-1.75511E-001	-1.49849E-001	1.01483E-007	-9.41439E-008	1.95627E-007	-1.75000E-001	3.99373E-004	6	..........a	-327.68
