EXPLAIN
TAG	SQUARE_WAVE
TITLE	LABEL	Square Wave Voltammetry	Test Identifier
DATE	LABEL	8/10/2020	Date
TIME	LABEL	20:44:51	Time
NOTES	NOTES	1	Notes...
	
PSTAT	PSTAT	REF600-24079	Potentiostat
VINIT	QUANT	-3.50000E-001	Initial E (V)
VFINAL	QUANT	-1.50000E-001	Final E (V)
STEPSIZE	QUANT	2.00000E+000	Step Size (mV)
TIMERRES	QUANT	3.33340E-005	&Timer Resolution
FREQUENCY	QUANT	5.00000E+000	Frequency (Hz)
PULSESIZE	QUANT	2.50000E+001	Pulse Size E (mV)
PULSEON	QUANT	2.00000E-001	Pulse &Time (s)
NOISEREJECT	TOGGLE	F	Noise Rejection
AREA	QUANT	2.00000E-002	Sample Area (cm^2)
IMODE	SELECTOR	1	I/E Range Mode
IRANGE	QUANT	1.00000E-003	Max Current (mA)
EQDELAY	IQUANT	10	Equil. Time (s)
IRCOMP	SELECTOR	0	IRComp
PFCOR	QUANT	5.00000E+001	PF Corr. (ohm)
CYCLES	IQUANT	101	C&ycles (#)
ELECTRODETYPE	SELECTOR	0	Electrode Type
STRIPPING	TOGGLE	F	Used for Stripping
POLARITY	TOGGLE	F	Signal Polarity
LINEFREQ	IQUANT	60	Line Frequency (Hz)
INTPERIOD	QUANT	3.3334E-005	Integration Period (s)
SEQUENCER	TOGGLE	TRUE	Run as Sequence
PSTATMODEL	IQUANT	4	Pstat Model
PSTATSECTION	LABEL	REF600-24079	Pstat Section
PSTATSERIALNO	LABEL	24079	Pstat Serial Number
CTRLMODE	IQUANT	1	Control Mode
ELECTROMETER	IQUANT	0	RE=0 or CS=1
IESTAB	IQUANT	2	I/E Stability
CASPEED	IQUANT	6	Control Amp Speed
CONVENTION	IQUANT	1	Current Convention
ICHRANGE	IQUANT	2	Ich Range
ICHRANGEMODE	TOGGLE	F	Ich Auto Range
ICHOFFSETENABLE	TOGGLE	F	Ich Offset Enable
ICHOFFSET	QUANT	0	Ich Offset (V)
ICHFILTER	IQUANT	2	Ich Filter
VCHRANGE	IQUANT	2	Vch Range
VCHRANGEMODE	TOGGLE	F	Vch Auto Range
VCHOFFSETENABLE	TOGGLE	F	Vch Offset Enable
VCHOFFSET	QUANT	0	Vch Offset (V)
VCHFILTER	IQUANT	2	Vch Filter
ACHRANGE	IQUANT	2	Ach Range
ACHOFFSETENABLE	TOGGLE	F	Ach Offset Enable
ACHOFFSET	QUANT	0	Ach Offset (V)
ACHFILTER	IQUANT	1	Ach Filter
IERANGELOWERLIMIT	IQUANT	1	I/E Range Lower Limit
IERANGEMODE	TOGGLE	F	I/E AutoRange
IERANGE	IQUANT	6	I/E Range
POSFEEDENABLE	TOGGLE	F	Positive Feedback IR Comp
POSFEEDRESISTANCE	QUANT	0	Positive Feedback Resistance (ohm)
ACHSELECT	IQUANT	0	Ach Select
SENSECABLEID	IQUANT	13	Sense Cable ID
PWRCABLEID	IQUANT	13	Power Cable ID
DCCALDATE	LABEL	6/30/2020	DC Calibration Date
ACCALDATE	LABEL	6/30/2020	AC Calibration Date
THERMOSELECT	IQUANT	1	Thermo Select
FRAMEWORKVERSION	LABEL	7.8.2	Framework Version
INSTRUMENTVERSION	LABEL	4.40	Instrument Version
CURVE	TABLE	101
	Pt	T	Vfwd	Vrev	Vstep	Ifwd	Irev	Idif	Sig	Ach	IERange	Over	Temp
	#	s	V	V	V	A	A	A	V	V	#	bits	deg C
	0	0.2	-3.24873E-001	-3.74891E-001	-3.49882E-001	-9.02466E-008	-1.71395E-007	8.11480E-008	-3.75000E-001	4.04456E-004	6	..........a	-327.68
	1	0.4	-3.22878E-001	-3.72901E-001	-3.47889E-001	-8.16945E-008	-1.65900E-007	8.42059E-008	-3.73000E-001	3.83123E-004	6	..........a	-327.68
	2	0.6	-3.20869E-001	-3.70817E-001	-3.45843E-001	-7.86831E-008	-1.62237E-007	8.35535E-008	-3.71000E-001	3.90623E-004	6	..........a	-327.68
	3	0.8	-3.18889E-001	-3.68678E-001	-3.43783E-001	-7.64870E-008	-1.58817E-007	8.23305E-008	-3.69000E-001	3.99039E-004	6	..........a	-327.68
	4	1	-3.16846E-001	-3.66907E-001	-3.41877E-001	-7.44769E-008	-1.55568E-007	8.10913E-008	-3.67000E-001	4.02123E-004	6	..........a	-327.68
	5	1.2	-3.14911E-001	-3.64901E-001	-3.39906E-001	-7.25321E-008	-1.52318E-007	7.97855E-008	-3.65000E-001	4.08623E-004	6	..........a	-327.68
	6	1.4	-3.12719E-001	-3.62841E-001	-3.37780E-001	-7.05396E-008	-1.49382E-007	7.88427E-008	-3.63000E-001	3.90539E-004	6	..........a	-327.68
	7	1.6	-3.10901E-001	-3.60839E-001	-3.35870E-001	-6.86452E-008	-1.46301E-007	7.76554E-008	-3.61000E-001	3.81289E-004	6	..........a	-327.68
	8	1.8	-3.08890E-001	-3.58874E-001	-3.33882E-001	-6.67496E-008	-1.43302E-007	7.65522E-008	-3.59000E-001	3.88206E-004	6	..........a	-327.68
	9	2	-3.06858E-001	-3.56808E-001	-3.31833E-001	-6.48515E-008	-1.40242E-007	7.53906E-008	-3.57000E-001	3.83623E-004	6	..........a	-327.68
	10	2.2	-3.04828E-001	-3.54849E-001	-3.29839E-001	-6.31088E-008	-1.37373E-007	7.42643E-008	-3.55000E-001	3.82956E-004	6	..........a	-327.68
	11	2.4	-3.02899E-001	-3.52889E-001	-3.27894E-001	-6.12785E-008	-1.34589E-007	7.33107E-008	-3.53000E-001	3.87289E-004	6	..........a	-327.68
	12	2.6	-3.00900E-001	-3.50885E-001	-3.25892E-001	-5.94635E-008	-1.31661E-007	7.21977E-008	-3.51000E-001	3.85456E-004	6	..........a	-327.68
	13	2.8	-2.98879E-001	-3.48900E-001	-3.23890E-001	-5.78049E-008	-1.28859E-007	7.10542E-008	-3.49000E-001	3.88289E-004	6	..........a	-327.68
	14	3	-2.96870E-001	-3.46893E-001	-3.21881E-001	-5.61266E-008	-1.26078E-007	6.99511E-008	-3.47000E-001	3.93039E-004	6	..........a	-327.68
	15	3.2	-2.94864E-001	-3.44624E-001	-3.19744E-001	-5.44002E-008	-1.23515E-007	6.91151E-008	-3.45000E-001	3.95289E-004	6	..........a	-327.68
	16	3.4	-2.92778E-001	-3.42857E-001	-3.17817E-001	-5.27430E-008	-1.20880E-007	6.81367E-008	-3.43000E-001	3.97206E-004	6	..........a	-327.68
	17	3.6	-2.90832E-001	-3.40893E-001	-3.15862E-001	-5.09871E-008	-1.18327E-007	6.73402E-008	-3.41000E-001	3.92039E-004	6	..........a	-327.68
	18	3.8	-2.88698E-001	-3.38863E-001	-3.13781E-001	-4.95247E-008	-1.15728E-007	6.62038E-008	-3.39000E-001	3.88789E-004	6	..........a	-327.68
	19	4	-2.86874E-001	-3.36759E-001	-3.11817E-001	-4.78997E-008	-1.13276E-007	6.53768E-008	-3.37000E-001	3.84789E-004	6	..........a	-327.68
	20	4.2	-2.84873E-001	-3.34886E-001	-3.09879E-001	-4.63900E-008	-1.10850E-007	6.44595E-008	-3.35000E-001	3.96956E-004	6	..........a	-327.68
	21	4.4	-2.82833E-001	-3.32867E-001	-3.07850E-001	-4.46738E-008	-1.08354E-007	6.36804E-008	-3.33000E-001	3.90206E-004	6	..........a	-327.68
	22	4.6	-2.80800E-001	-3.30841E-001	-3.05821E-001	-4.32566E-008	-1.06046E-007	6.27898E-008	-3.31000E-001	3.93956E-004	6	..........a	-327.68
	23	4.8	-2.78880E-001	-3.28856E-001	-3.03868E-001	-4.17649E-008	-1.03694E-007	6.19295E-008	-3.29000E-001	3.92456E-004	6	..........a	-327.68
	24	5	-2.76888E-001	-3.26887E-001	-3.01887E-001	-4.02674E-008	-1.01571E-007	6.13038E-008	-3.27000E-001	3.90456E-004	6	..........a	-327.68
	25	5.2	-2.74863E-001	-3.24887E-001	-2.99875E-001	-3.88132E-008	-9.93097E-008	6.04965E-008	-3.25000E-001	3.84206E-004	6	..........a	-327.68
	26	5.4	-2.72871E-001	-3.22883E-001	-2.97877E-001	-3.74929E-008	-9.70251E-008	5.95322E-008	-3.23000E-001	3.88373E-004	6	..........a	-327.68
	27	5.6	-2.70895E-001	-3.20889E-001	-2.95892E-001	-3.59513E-008	-9.49913E-008	5.90400E-008	-3.21000E-001	3.77123E-004	6	..........a	-327.68
	28	5.8	-2.68889E-001	-3.18866E-001	-2.93877E-001	-3.45966E-008	-9.28574E-008	5.82607E-008	-3.19000E-001	3.82456E-004	6	..........a	-327.68
	29	6	-2.66840E-001	-3.16742E-001	-2.91791E-001	-3.31428E-008	-9.08346E-008	5.76918E-008	-3.17000E-001	3.65539E-004	6	..........a	-327.68
	30	6.2	-2.64674E-001	-3.14904E-001	-2.89789E-001	-3.18410E-008	-8.88157E-008	5.69747E-008	-3.15000E-001	3.74873E-004	6	..........a	-327.68
	31	6.4	-2.62913E-001	-3.12730E-001	-2.87822E-001	-3.05605E-008	-8.69246E-008	5.63642E-008	-3.13000E-001	3.72956E-004	6	..........a	-327.68
	32	6.6	-2.60853E-001	-3.10889E-001	-2.85871E-001	-2.92901E-008	-8.50192E-008	5.57291E-008	-3.11000E-001	3.81206E-004	6	..........a	-327.68
	33	6.8	-2.58851E-001	-3.08875E-001	-2.83863E-001	-2.80110E-008	-8.30667E-008	5.50557E-008	-3.09000E-001	3.79289E-004	6	..........a	-327.68
	34	7	-2.56808E-001	-3.06864E-001	-2.81836E-001	-2.68438E-008	-8.12228E-008	5.43789E-008	-3.07000E-001	3.72539E-004	6	..........a	-327.68
	35	7.2	-2.54905E-001	-3.04825E-001	-2.79865E-001	-2.55803E-008	-7.94597E-008	5.38794E-008	-3.05000E-001	3.84039E-004	6	..........a	-327.68
	36	7.4	-2.52875E-001	-3.02899E-001	-2.77887E-001	-2.45269E-008	-7.77938E-008	5.32669E-008	-3.03000E-001	3.85623E-004	6	..........a	-327.68
	37	7.6	-2.50866E-001	-3.00907E-001	-2.75886E-001	-2.34964E-008	-7.60606E-008	5.25642E-008	-3.01000E-001	3.85123E-004	6	..........a	-327.68
	38	7.8	-2.48879E-001	-2.98882E-001	-2.73881E-001	-2.23229E-008	-7.44311E-008	5.21081E-008	-2.99000E-001	3.95706E-004	6	..........a	-327.68
	39	8	-2.46891E-001	-2.96892E-001	-2.71892E-001	-2.13465E-008	-7.28272E-008	5.14807E-008	-2.97000E-001	4.02789E-004	6	..........a	-327.68
	40	8.2	-2.44898E-001	-2.94884E-001	-2.69891E-001	-2.02903E-008	-7.12658E-008	5.09755E-008	-2.95000E-001	3.93956E-004	6	..........a	-327.68
	41	8.4	-2.42821E-001	-2.92778E-001	-2.67799E-001	-1.92240E-008	-6.96694E-008	5.04454E-008	-2.93000E-001	4.05956E-004	6	..........a	-327.68
	42	8.6	-2.40658E-001	-2.90829E-001	-2.65743E-001	-1.83911E-008	-6.81286E-008	4.97375E-008	-2.91000E-001	4.01873E-004	6	..........a	-327.68
	43	8.8	-2.38897E-001	-2.88706E-001	-2.63801E-001	-1.74001E-008	-6.67039E-008	4.93038E-008	-2.89000E-001	3.99623E-004	6	..........a	-327.68
	44	9	-2.36888E-001	-2.86886E-001	-2.61887E-001	-1.64497E-008	-6.51770E-008	4.87274E-008	-2.87000E-001	4.04039E-004	6	..........a	-327.68
	45	9.2	-2.34848E-001	-2.84813E-001	-2.59830E-001	-1.56111E-008	-6.37760E-008	4.81650E-008	-2.85000E-001	4.04706E-004	6	..........a	-327.68
	46	9.4	-2.32796E-001	-2.82841E-001	-2.57818E-001	-1.48003E-008	-6.23847E-008	4.75844E-008	-2.83000E-001	4.04039E-004	6	..........a	-327.68
	47	9.6	-2.30881E-001	-2.80791E-001	-2.55836E-001	-1.39202E-008	-6.09178E-008	4.69976E-008	-2.81000E-001	4.06206E-004	6	..........a	-327.68
	48	9.8	-2.28788E-001	-2.78873E-001	-2.53830E-001	-1.30887E-008	-5.95773E-008	4.64886E-008	-2.79000E-001	4.02789E-004	6	..........a	-327.68
	49	10	-2.26840E-001	-2.76887E-001	-2.51864E-001	-1.24232E-008	-5.83257E-008	4.59025E-008	-2.77000E-001	3.95456E-004	6	..........a	-327.68
	50	10.2	-2.24861E-001	-2.74865E-001	-2.49863E-001	-1.17087E-008	-5.70413E-008	4.53326E-008	-2.75000E-001	3.94123E-004	6	..........a	-327.68
	51	10.4	-2.22884E-001	-2.72860E-001	-2.47872E-001	-1.09323E-008	-5.57212E-008	4.47889E-008	-2.73000E-001	3.93289E-004	6	..........a	-327.68
	52	10.6	-2.20883E-001	-2.70867E-001	-2.45875E-001	-1.01819E-008	-5.43615E-008	4.41796E-008	-2.71000E-001	3.99289E-004	6	..........a	-327.68
	53	10.8	-2.18874E-001	-2.68883E-001	-2.43879E-001	-9.54613E-009	-5.31757E-008	4.36296E-008	-2.69000E-001	4.02789E-004	6	..........a	-327.68
	54	11	-2.16605E-001	-2.66816E-001	-2.41710E-001	-8.91038E-009	-5.20120E-008	4.31017E-008	-2.67000E-001	3.95956E-004	6	..........a	-327.68
	55	11.2	-2.14862E-001	-2.64637E-001	-2.39750E-001	-8.36765E-009	-5.08896E-008	4.25219E-008	-2.65000E-001	3.83206E-004	6	..........a	-327.68
	56	11.4	-2.12892E-001	-2.62906E-001	-2.37899E-001	-7.56171E-009	-4.96704E-008	4.21087E-008	-2.63000E-001	3.99039E-004	6	..........a	-327.68
	57	11.6	-2.10885E-001	-2.60871E-001	-2.35878E-001	-7.00214E-009	-4.85739E-008	4.15718E-008	-2.61000E-001	3.89206E-004	6	..........a	-327.68
	58	11.8	-2.08754E-001	-2.58845E-001	-2.33799E-001	-6.35372E-009	-4.73264E-008	4.09727E-008	-2.59000E-001	3.92039E-004	6	..........a	-327.68
	59	12	-2.06879E-001	-2.56798E-001	-2.31839E-001	-5.78865E-009	-4.64202E-008	4.06315E-008	-2.57000E-001	3.95289E-004	6	..........a	-327.68
	60	12.2	-2.04855E-001	-2.54903E-001	-2.29879E-001	-5.28142E-009	-4.52440E-008	3.99626E-008	-2.55000E-001	3.74289E-004	6	..........a	-327.68
	61	12.4	-2.02840E-001	-2.52885E-001	-2.27862E-001	-4.70218E-009	-4.42921E-008	3.95899E-008	-2.53000E-001	3.85873E-004	6	..........a	-327.68
	62	12.6	-2.00851E-001	-2.50865E-001	-2.25858E-001	-4.14594E-009	-4.32221E-008	3.90761E-008	-2.51000E-001	3.79456E-004	6	..........a	-327.68
	63	12.8	-1.98894E-001	-2.48866E-001	-2.23880E-001	-3.65322E-009	-4.21679E-008	3.85147E-008	-2.49000E-001	3.86289E-004	6	..........a	-327.68
	64	13	-1.96893E-001	-2.46892E-001	-2.21892E-001	-3.13715E-009	-4.12702E-008	3.81330E-008	-2.47000E-001	3.71873E-004	6	..........a	-327.68
	65	13.2	-1.94879E-001	-2.44894E-001	-2.19886E-001	-2.73810E-009	-4.03310E-008	3.75929E-008	-2.45000E-001	3.92039E-004	6	..........a	-327.68
	66	13.4	-1.92882E-001	-2.42800E-001	-2.17841E-001	-2.13085E-009	-3.93551E-008	3.72242E-008	-2.43000E-001	3.83706E-004	6	..........a	-327.68
	67	13.6	-1.90868E-001	-2.40635E-001	-2.15751E-001	-1.78581E-009	-3.84596E-008	3.66738E-008	-2.41000E-001	3.82956E-004	6	..........a	-327.68
	68	13.8	-1.88803E-001	-2.38900E-001	-2.13852E-001	-1.32692E-009	-3.75620E-008	3.62351E-008	-2.39000E-001	3.78623E-004	6	..........a	-327.68
	69	14	-1.86854E-001	-2.36851E-001	-2.11852E-001	-7.29509E-010	-3.67096E-008	3.59801E-008	-2.37000E-001	3.86956E-004	6	..........a	-327.68
	70	14.2	-1.84724E-001	-2.34845E-001	-2.09785E-001	-2.58116E-010	-3.57953E-008	3.55372E-008	-2.35000E-001	3.83039E-004	6	..........a	-327.68
	71	14.4	-1.82872E-001	-2.32790E-001	-2.07831E-001	7.97602E-011	-3.50587E-008	3.51385E-008	-2.33000E-001	3.75539E-004	6	..........a	-327.68
	72	14.6	-1.80820E-001	-2.30880E-001	-2.05850E-001	5.71989E-010	-3.42636E-008	3.48356E-008	-2.31000E-001	3.72789E-004	6	..........a	-327.68
	73	14.8	-1.78827E-001	-2.28856E-001	-2.03841E-001	8.65027E-010	-3.36137E-008	3.44787E-008	-2.29000E-001	3.87623E-004	6	..........a	-327.68
	74	15	-1.76826E-001	-2.26850E-001	-2.01838E-001	1.37709E-009	-3.27477E-008	3.41248E-008	-2.27000E-001	3.76123E-004	6	..........a	-327.68
	75	15.2	-1.74876E-001	-2.24857E-001	-1.99867E-001	1.73764E-009	-3.21072E-008	3.38448E-008	-2.25000E-001	3.65039E-004	6	..........a	-327.68
	76	15.4	-1.72879E-001	-2.22881E-001	-1.97880E-001	2.02117E-009	-3.12507E-008	3.32719E-008	-2.23000E-001	3.64873E-004	6	..........a	-327.68
	77	15.6	-1.70854E-001	-2.20883E-001	-1.95868E-001	2.40622E-009	-3.06433E-008	3.30495E-008	-2.21000E-001	3.65206E-004	6	..........a	-327.68
	78	15.8	-1.68880E-001	-2.18881E-001	-1.93880E-001	2.77060E-009	-2.99682E-008	3.27388E-008	-2.19000E-001	3.66456E-004	6	..........a	-327.68
	79	16	-1.66894E-001	-2.16607E-001	-1.91750E-001	3.14532E-009	-2.93718E-008	3.25171E-008	-2.17000E-001	3.67789E-004	6	..........a	-327.68
	80	16.2	-1.64767E-001	-2.14867E-001	-1.89817E-001	3.61454E-009	-2.88198E-008	3.24343E-008	-2.15000E-001	3.72873E-004	6	..........a	-327.68
	81	16.4	-1.62828E-001	-2.12887E-001	-1.87857E-001	3.88674E-009	-2.81805E-008	3.20672E-008	-2.13000E-001	3.75123E-004	6	..........a	-327.68
	82	16.6	-1.60730E-001	-2.10892E-001	-1.85811E-001	4.18662E-009	-2.75364E-008	3.17230E-008	-2.11000E-001	3.78623E-004	6	..........a	-327.68
	83	16.8	-1.58875E-001	-2.08748E-001	-1.83812E-001	4.44448E-009	-2.70444E-008	3.14888E-008	-2.09000E-001	3.84706E-004	6	..........a	-327.68
	84	17	-1.56854E-001	-2.06893E-001	-1.81874E-001	4.82670E-009	-2.65418E-008	3.13685E-008	-2.07000E-001	3.66373E-004	6	..........a	-327.68
	85	17.2	-1.54828E-001	-2.04862E-001	-1.79845E-001	5.27292E-009	-2.60322E-008	3.13051E-008	-2.05000E-001	3.76206E-004	6	..........a	-327.68
	86	17.4	-1.52791E-001	-2.02843E-001	-1.77817E-001	5.43661E-009	-2.54713E-008	3.09079E-008	-2.03000E-001	3.81956E-004	6	..........a	-327.68
	87	17.6	-1.50882E-001	-2.00861E-001	-1.75872E-001	5.74015E-009	-2.50503E-008	3.07904E-008	-2.01000E-001	3.79289E-004	6	..........a	-327.68
	88	17.8	-1.48864E-001	-1.98903E-001	-1.73884E-001	6.03802E-009	-2.44990E-008	3.05371E-008	-1.99000E-001	3.79789E-004	6	..........a	-327.68
	89	18	-1.46855E-001	-1.96889E-001	-1.71872E-001	6.33889E-009	-2.39573E-008	3.02962E-008	-1.97000E-001	3.74206E-004	6	..........a	-327.68
	90	18.2	-1.44877E-001	-1.94875E-001	-1.69876E-001	6.70577E-009	-2.34732E-008	3.01790E-008	-1.95000E-001	3.70123E-004	6	..........a	-327.68
	91	18.4	-1.42905E-001	-1.92888E-001	-1.67897E-001	6.91180E-009	-2.31172E-008	3.00290E-008	-1.93000E-001	3.75039E-004	6	..........a	-327.68
	92	18.6	-1.40892E-001	-1.90884E-001	-1.65888E-001	7.21217E-009	-2.26466E-008	2.98588E-008	-1.91000E-001	3.80123E-004	6	..........a	-327.68
	93	18.8	-1.38793E-001	-1.88789E-001	-1.63791E-001	7.47103E-009	-2.23358E-008	2.98068E-008	-1.89000E-001	3.76539E-004	6	..........a	-327.68
	94	19	-1.36651E-001	-1.86866E-001	-1.61759E-001	7.77891E-009	-2.18555E-008	2.96344E-008	-1.87000E-001	3.69539E-004	6	..........a	-327.68
	95	19.2	-1.34908E-001	-1.84712E-001	-1.59810E-001	7.93609E-009	-2.13990E-008	2.93351E-008	-1.85000E-001	3.67789E-004	6	..........a	-327.68
	96	19.4	-1.32794E-001	-1.82877E-001	-1.57836E-001	8.24830E-009	-2.10119E-008	2.92602E-008	-1.83000E-001	3.78206E-004	6	..........a	-327.68
	97	19.6	-1.30816E-001	-1.80856E-001	-1.55836E-001	8.40782E-009	-2.06612E-008	2.90690E-008	-1.81000E-001	3.78956E-004	6	..........a	-327.68
	98	19.8	-1.28778E-001	-1.78836E-001	-1.53807E-001	8.75236E-009	-2.02657E-008	2.90180E-008	-1.79000E-001	3.77456E-004	6	..........a	-327.68
	99	20	-1.26879E-001	-1.76819E-001	-1.51849E-001	9.06340E-009	-1.98719E-008	2.89353E-008	-1.77000E-001	3.75873E-004	6	..........a	-327.68
	100	20.2	-1.24845E-001	-1.74884E-001	-1.49864E-001	9.25693E-009	-1.96651E-008	2.89220E-008	-1.75000E-001	3.73706E-004	6	..........a	-327.68
