EXPLAIN
TAG	SQUARE_WAVE
TITLE	LABEL	Square Wave Voltammetry	Test Identifier
DATE	LABEL	8/25/2020	Date
TIME	LABEL	14:53:43	Time
NOTES	NOTES	1	Notes...
	
PSTAT	PSTAT	REF600-24079	Potentiostat
VINIT	QUANT	-3.50000E-001	Initial E (V)
VFINAL	QUANT	-1.50000E-001	Final E (V)
STEPSIZE	QUANT	2.00000E+000	Step Size (mV)
TIMERRES	QUANT	3.33340E-005	&Timer Resolution
FREQUENCY	QUANT	1.00000E+001	Frequency (Hz)
PULSESIZE	QUANT	2.50000E+001	Pulse Size E (mV)
PULSEON	QUANT	1.00000E-001	Pulse &Time (s)
NOISEREJECT	TOGGLE	F	Noise Rejection
AREA	QUANT	2.00000E-002	Sample Area (cm^2)
IMODE	SELECTOR	1	I/E Range Mode
IRANGE	QUANT	1.00000E-003	Max Current (mA)
EQDELAY	IQUANT	10	Equil. Time (s)
IRCOMP	SELECTOR	0	IRComp
PFCOR	QUANT	5.00000E+001	PF Corr. (ohm)
CYCLES	IQUANT	101	C&ycles (#)
ELECTRODETYPE	SELECTOR	0	Electrode Type
STRIPPING	TOGGLE	F	Used for Stripping
POLARITY	TOGGLE	F	Signal Polarity
LINEFREQ	IQUANT	60	Line Frequency (Hz)
INTPERIOD	QUANT	3.3334E-005	Integration Period (s)
SEQUENCER	TOGGLE	TRUE	Run as Sequence
PSTATMODEL	IQUANT	4	Pstat Model
PSTATSECTION	LABEL	REF600-24079	Pstat Section
PSTATSERIALNO	LABEL	24079	Pstat Serial Number
CTRLMODE	IQUANT	1	Control Mode
ELECTROMETER	IQUANT	0	RE=0 or CS=1
IESTAB	IQUANT	2	I/E Stability
CASPEED	IQUANT	6	Control Amp Speed
CONVENTION	IQUANT	1	Current Convention
ICHRANGE	IQUANT	2	Ich Range
ICHRANGEMODE	TOGGLE	F	Ich Auto Range
ICHOFFSETENABLE	TOGGLE	F	Ich Offset Enable
ICHOFFSET	QUANT	0	Ich Offset (V)
ICHFILTER	IQUANT	2	Ich Filter
VCHRANGE	IQUANT	2	Vch Range
VCHRANGEMODE	TOGGLE	F	Vch Auto Range
VCHOFFSETENABLE	TOGGLE	F	Vch Offset Enable
VCHOFFSET	QUANT	0	Vch Offset (V)
VCHFILTER	IQUANT	2	Vch Filter
ACHRANGE	IQUANT	2	Ach Range
ACHOFFSETENABLE	TOGGLE	F	Ach Offset Enable
ACHOFFSET	QUANT	0	Ach Offset (V)
ACHFILTER	IQUANT	1	Ach Filter
IERANGELOWERLIMIT	IQUANT	1	I/E Range Lower Limit
IERANGEMODE	TOGGLE	F	I/E AutoRange
IERANGE	IQUANT	6	I/E Range
POSFEEDENABLE	TOGGLE	F	Positive Feedback IR Comp
POSFEEDRESISTANCE	QUANT	0	Positive Feedback Resistance (ohm)
ACHSELECT	IQUANT	0	Ach Select
SENSECABLEID	IQUANT	13	Sense Cable ID
PWRCABLEID	IQUANT	13	Power Cable ID
DCCALDATE	LABEL	6/30/2020	DC Calibration Date
ACCALDATE	LABEL	6/30/2020	AC Calibration Date
THERMOSELECT	IQUANT	1	Thermo Select
FRAMEWORKVERSION	LABEL	7.8.2	Framework Version
INSTRUMENTVERSION	LABEL	4.40	Instrument Version
CURVE	TABLE	101
	Pt	T	Vfwd	Vrev	Vstep	Ifwd	Irev	Idif	Sig	Ach	IERange	Over	Temp
	#	s	V	V	V	A	A	A	V	V	#	bits	deg C
	0	0.1	-3.24965E-001	-3.74937E-001	-3.49951E-001	-6.42290E-009	-3.43251E-008	2.79022E-008	-3.75000E-001	4.11039E-004	6	..........a	-327.68
	1	0.2	-3.22908E-001	-3.72971E-001	-3.47939E-001	5.83699E-009	-2.99732E-008	3.58102E-008	-3.73000E-001	3.95039E-004	6	..........a	-327.68
	2	0.3	-3.20970E-001	-3.70828E-001	-3.45899E-001	8.00394E-009	-2.81983E-008	3.62023E-008	-3.71000E-001	3.93206E-004	6	..........a	-327.68
	3	0.4	-3.18946E-001	-3.69076E-001	-3.44011E-001	9.11474E-009	-2.73232E-008	3.64380E-008	-3.69000E-001	3.82373E-004	6	..........a	-327.68
	4	0.5	-3.16909E-001	-3.66924E-001	-3.41917E-001	9.95385E-009	-2.66281E-008	3.65820E-008	-3.67000E-001	3.86706E-004	6	..........a	-327.68
	5	0.6	-3.14884E-001	-3.64988E-001	-3.39936E-001	1.04216E-008	-2.59957E-008	3.64173E-008	-3.65000E-001	3.84706E-004	6	..........a	-327.68
	6	0.7	-3.13000E-001	-3.62861E-001	-3.37930E-001	1.12147E-008	-2.56460E-008	3.68607E-008	-3.63000E-001	3.86873E-004	6	..........a	-327.68
	7	0.8	-3.10929E-001	-3.61008E-001	-3.35968E-001	1.18541E-008	-2.51600E-008	3.70140E-008	-3.61000E-001	3.97539E-004	6	..........a	-327.68
	8	0.9	-3.08967E-001	-3.58917E-001	-3.33942E-001	1.23918E-008	-2.47419E-008	3.71337E-008	-3.59000E-001	3.99206E-004	6	..........a	-327.68
	9	1	-3.06890E-001	-3.57005E-001	-3.31948E-001	1.27749E-008	-2.44882E-008	3.72631E-008	-3.57000E-001	3.89706E-004	6	..........a	-327.68
	10	1.1	-3.05014E-001	-3.54892E-001	-3.29953E-001	1.33900E-008	-2.45502E-008	3.79402E-008	-3.55000E-001	3.83373E-004	6	..........a	-327.68
	11	1.2	-3.02961E-001	-3.53012E-001	-3.27986E-001	1.40034E-008	-2.44262E-008	3.84296E-008	-3.53000E-001	3.87206E-004	6	..........a	-327.68
	12	1.3	-3.00994E-001	-3.50935E-001	-3.25965E-001	1.45994E-008	-2.42668E-008	3.88663E-008	-3.51000E-001	3.85539E-004	6	..........a	-327.68
	13	1.4	-2.98908E-001	-3.48972E-001	-3.23940E-001	1.52422E-008	-2.41175E-008	3.93597E-008	-3.49000E-001	3.96206E-004	6	..........a	-327.68
	14	1.5	-2.96995E-001	-3.46921E-001	-3.21958E-001	1.60126E-008	-2.41128E-008	4.01254E-008	-3.47000E-001	3.93539E-004	6	..........a	-327.68
	15	1.6	-2.94939E-001	-3.45090E-001	-3.20015E-001	1.66247E-008	-2.41912E-008	4.08159E-008	-3.45000E-001	3.86373E-004	6	..........a	-327.68
	16	1.7	-2.92901E-001	-3.42910E-001	-3.17905E-001	1.73758E-008	-2.41478E-008	4.15236E-008	-3.43000E-001	3.85373E-004	6	..........a	-327.68
	17	1.8	-2.90840E-001	-3.40994E-001	-3.15917E-001	1.83002E-008	-2.42588E-008	4.25591E-008	-3.41000E-001	3.94373E-004	6	..........a	-327.68
	18	1.9	-2.89020E-001	-3.38864E-001	-3.13942E-001	1.91400E-008	-2.45719E-008	4.37119E-008	-3.39000E-001	3.86539E-004	6	..........a	-327.68
	19	2	-2.86945E-001	-3.37015E-001	-3.11980E-001	1.99445E-008	-2.47422E-008	4.46867E-008	-3.37000E-001	4.03706E-004	6	..........a	-327.68
	20	2.1	-2.84988E-001	-3.34910E-001	-3.09949E-001	2.12800E-008	-2.50446E-008	4.63246E-008	-3.35000E-001	4.00039E-004	6	..........a	-327.68
	21	2.2	-2.82869E-001	-3.32967E-001	-3.07918E-001	2.23238E-008	-2.54663E-008	4.77901E-008	-3.33000E-001	4.06539E-004	6	..........a	-327.68
	22	2.3	-2.81042E-001	-3.30878E-001	-3.05960E-001	2.35466E-008	-2.58184E-008	4.93649E-008	-3.31000E-001	3.97873E-004	6	..........a	-327.68
	23	2.4	-2.78937E-001	-3.28990E-001	-3.03964E-001	2.48741E-008	-2.63634E-008	5.12375E-008	-3.29000E-001	3.96206E-004	6	..........a	-327.68
	24	2.5	-2.76991E-001	-3.26931E-001	-3.01961E-001	2.59992E-008	-2.70199E-008	5.30191E-008	-3.27000E-001	3.92873E-004	6	..........a	-327.68
	25	2.6	-2.74900E-001	-3.24961E-001	-2.99931E-001	2.76641E-008	-2.79173E-008	5.55814E-008	-3.25000E-001	3.97873E-004	6	..........a	-327.68
	26	2.7	-2.72982E-001	-3.22913E-001	-2.97947E-001	2.92396E-008	-2.84890E-008	5.77287E-008	-3.23000E-001	3.96706E-004	6	..........a	-327.68
	27	2.8	-2.70938E-001	-3.20940E-001	-2.95939E-001	3.04445E-008	-2.92265E-008	5.96709E-008	-3.21000E-001	4.08539E-004	6	..........a	-327.68
	28	2.9	-2.68967E-001	-3.18889E-001	-2.93928E-001	3.22567E-008	-3.05326E-008	6.27893E-008	-3.19000E-001	4.00206E-004	6	..........a	-327.68
	29	3	-2.66814E-001	-3.16978E-001	-2.91896E-001	3.38422E-008	-3.12257E-008	6.50680E-008	-3.17000E-001	4.07873E-004	6	..........a	-327.68
	30	3.1	-2.65067E-001	-3.14902E-001	-2.89984E-001	3.50034E-008	-3.23125E-008	6.73159E-008	-3.15000E-001	4.05539E-004	6	..........a	-327.68
	31	3.2	-2.62920E-001	-3.13004E-001	-2.87962E-001	3.67689E-008	-3.35283E-008	7.02973E-008	-3.13000E-001	4.10706E-004	6	..........a	-327.68
	32	3.3	-2.60972E-001	-3.10935E-001	-2.85953E-001	3.85288E-008	-3.49379E-008	7.34667E-008	-3.11000E-001	4.00039E-004	6	..........a	-327.68
	33	3.4	-2.58864E-001	-3.08983E-001	-2.83923E-001	3.97860E-008	-3.61607E-008	7.59467E-008	-3.09000E-001	3.97706E-004	6	..........a	-327.68
	34	3.5	-2.56996E-001	-3.06885E-001	-2.81940E-001	4.11418E-008	-3.76649E-008	7.88067E-008	-3.07000E-001	3.94539E-004	6	..........a	-327.68
	35	3.6	-2.54934E-001	-3.05019E-001	-2.79976E-001	4.24700E-008	-3.90887E-008	8.15587E-008	-3.05000E-001	4.02373E-004	6	..........a	-327.68
	36	3.7	-2.52983E-001	-3.02945E-001	-2.77964E-001	4.35428E-008	-4.07449E-008	8.42877E-008	-3.03000E-001	4.08039E-004	6	..........a	-327.68
	37	3.8	-2.50892E-001	-3.00996E-001	-2.75944E-001	4.44416E-008	-4.21174E-008	8.65590E-008	-3.01000E-001	4.12039E-004	6	..........a	-327.68
	38	3.9	-2.48965E-001	-2.98922E-001	-2.73943E-001	4.54504E-008	-4.33119E-008	8.87623E-008	-2.99000E-001	4.06039E-004	6	..........a	-327.68
	39	4	-2.46930E-001	-2.96979E-001	-2.71954E-001	4.61468E-008	-4.49745E-008	9.11213E-008	-2.97000E-001	3.95706E-004	6	..........a	-327.68
	40	4.1	-2.44955E-001	-2.94915E-001	-2.69935E-001	4.66645E-008	-4.62500E-008	9.29145E-008	-2.95000E-001	4.14706E-004	6	..........a	-327.68
	41	4.2	-2.42829E-001	-2.92970E-001	-2.67900E-001	4.70539E-008	-4.72944E-008	9.43483E-008	-2.93000E-001	4.12539E-004	6	..........a	-327.68
	42	4.3	-2.41059E-001	-2.90854E-001	-2.65956E-001	4.69476E-008	-4.85136E-008	9.54611E-008	-2.91000E-001	4.05706E-004	6	..........a	-327.68
	43	4.4	-2.38922E-001	-2.89003E-001	-2.63962E-001	4.68825E-008	-4.95384E-008	9.64209E-008	-2.89000E-001	4.12039E-004	6	..........a	-327.68
	44	4.5	-2.36972E-001	-2.86902E-001	-2.61937E-001	4.67715E-008	-5.05815E-008	9.73531E-008	-2.87000E-001	4.06539E-004	6	..........a	-327.68
	45	4.6	-2.34846E-001	-2.85005E-001	-2.59925E-001	4.64355E-008	-5.12626E-008	9.76981E-008	-2.85000E-001	3.98706E-004	6	..........a	-327.68
	46	4.7	-2.32981E-001	-2.82883E-001	-2.57932E-001	4.57821E-008	-5.16500E-008	9.74321E-008	-2.83000E-001	4.10539E-004	6	..........a	-327.68
	47	4.8	-2.30908E-001	-2.81056E-001	-2.55982E-001	4.52713E-008	-5.19920E-008	9.72634E-008	-2.81000E-001	4.12039E-004	6	..........a	-327.68
	48	4.9	-2.28945E-001	-2.78905E-001	-2.53925E-001	4.44366E-008	-5.20864E-008	9.65229E-008	-2.79000E-001	4.13539E-004	6	..........a	-327.68
	49	5	-2.26874E-001	-2.76973E-001	-2.51923E-001	4.36158E-008	-5.19920E-008	9.56078E-008	-2.77000E-001	4.12373E-004	6	..........a	-327.68
	50	5.1	-2.24970E-001	-2.74906E-001	-2.49938E-001	4.27293E-008	-5.19690E-008	9.46984E-008	-2.75000E-001	4.16873E-004	6	..........a	-327.68
	51	5.2	-2.22917E-001	-2.72966E-001	-2.47941E-001	4.18149E-008	-5.15086E-008	9.33235E-008	-2.73000E-001	4.06539E-004	6	..........a	-327.68
	52	5.3	-2.20967E-001	-2.70920E-001	-2.45944E-001	4.07261E-008	-5.07885E-008	9.15146E-008	-2.71000E-001	4.20039E-004	6	..........a	-327.68
	53	5.4	-2.18919E-001	-2.68943E-001	-2.43931E-001	3.96170E-008	-5.00811E-008	8.96981E-008	-2.69000E-001	4.12539E-004	6	..........a	-327.68
	54	5.5	-2.17078E-001	-2.66837E-001	-2.41957E-001	3.84875E-008	-4.90923E-008	8.75798E-008	-2.67000E-001	4.09539E-004	6	..........a	-327.68
	55	5.6	-2.14902E-001	-2.65066E-001	-2.39984E-001	3.73190E-008	-4.80805E-008	8.53995E-008	-2.65000E-001	4.03706E-004	6	..........a	-327.68
	56	5.7	-2.12949E-001	-2.62905E-001	-2.37927E-001	3.65202E-008	-4.70234E-008	8.35436E-008	-2.63000E-001	4.07373E-004	6	..........a	-327.68
	57	5.8	-2.10866E-001	-2.60985E-001	-2.35926E-001	3.52107E-008	-4.54662E-008	8.06769E-008	-2.61000E-001	4.13373E-004	6	..........a	-327.68
	58	5.9	-2.08992E-001	-2.58884E-001	-2.33938E-001	3.43663E-008	-4.40897E-008	7.84560E-008	-2.59000E-001	4.07539E-004	6	..........a	-327.68
	59	6	-2.06897E-001	-2.56992E-001	-2.31944E-001	3.32898E-008	-4.25298E-008	7.58196E-008	-2.57000E-001	4.03539E-004	6	..........a	-327.68
	60	6.1	-2.04963E-001	-2.54934E-001	-2.29949E-001	3.20113E-008	-4.09416E-008	7.29530E-008	-2.55000E-001	3.91539E-004	6	..........a	-327.68
	61	6.2	-2.02864E-001	-2.52971E-001	-2.27917E-001	3.11332E-008	-3.93581E-008	7.04913E-008	-2.53000E-001	3.93039E-004	6	..........a	-327.68
	62	6.3	-2.00997E-001	-2.50900E-001	-2.25949E-001	3.04001E-008	-3.75885E-008	6.79887E-008	-2.51000E-001	3.93039E-004	6	..........a	-327.68
	63	6.4	-1.98932E-001	-2.48972E-001	-2.23952E-001	2.93690E-008	-3.58426E-008	6.52116E-008	-2.49000E-001	3.95706E-004	6	..........a	-327.68
	64	6.5	-1.96965E-001	-2.46932E-001	-2.21948E-001	2.84735E-008	-3.43238E-008	6.27973E-008	-2.47000E-001	3.94206E-004	6	..........a	-327.68
	65	6.6	-1.94913E-001	-2.44947E-001	-2.19930E-001	2.75701E-008	-3.26612E-008	6.02313E-008	-2.45000E-001	3.94373E-004	6	..........a	-327.68
	66	6.7	-1.92960E-001	-2.42827E-001	-2.17893E-001	2.68833E-008	-3.11090E-008	5.79924E-008	-2.43000E-001	3.92706E-004	6	..........a	-327.68
	67	6.8	-1.90913E-001	-2.41047E-001	-2.15980E-001	2.63159E-008	-2.95898E-008	5.59058E-008	-2.41000E-001	3.99706E-004	6	..........a	-327.68
	68	6.9	-1.88953E-001	-2.38903E-001	-2.13928E-001	2.57852E-008	-2.82053E-008	5.39905E-008	-2.39000E-001	3.93706E-004	6	..........a	-327.68
	69	7	-1.86857E-001	-2.36955E-001	-2.11906E-001	2.49188E-008	-2.68175E-008	5.17363E-008	-2.37000E-001	3.95706E-004	6	..........a	-327.68
	70	7.1	-1.84989E-001	-2.34848E-001	-2.09918E-001	2.43043E-008	-2.55217E-008	4.98260E-008	-2.35000E-001	4.02539E-004	6	..........a	-327.68
	71	7.2	-1.82903E-001	-2.33006E-001	-2.07955E-001	2.37359E-008	-2.44472E-008	4.81831E-008	-2.33000E-001	4.05039E-004	6	..........a	-327.68
	72	7.3	-1.80984E-001	-2.30915E-001	-2.05950E-001	2.32519E-008	-2.33511E-008	4.66029E-008	-2.31000E-001	3.90539E-004	6	..........a	-327.68
	73	7.4	-1.78869E-001	-2.29005E-001	-2.03937E-001	2.28225E-008	-2.23973E-008	4.52198E-008	-2.29000E-001	4.04039E-004	6	..........a	-327.68
	74	7.5	-1.77001E-001	-2.26886E-001	-2.01943E-001	2.25424E-008	-2.12461E-008	4.37886E-008	-2.27000E-001	3.96373E-004	6	..........a	-327.68
	75	7.6	-1.74933E-001	-2.24979E-001	-1.99956E-001	2.21577E-008	-2.02770E-008	4.24347E-008	-2.25000E-001	3.87706E-004	6	..........a	-327.68
	76	7.7	-1.72987E-001	-2.22932E-001	-1.97960E-001	2.18160E-008	-1.94912E-008	4.13073E-008	-2.23000E-001	4.01873E-004	6	..........a	-327.68
	77	7.8	-1.70893E-001	-2.20961E-001	-1.95927E-001	2.14746E-008	-1.87531E-008	4.02278E-008	-2.21000E-001	3.99039E-004	6	..........a	-327.68
	78	7.9	-1.68970E-001	-2.18919E-001	-1.93944E-001	2.11873E-008	-1.79460E-008	3.91333E-008	-2.19000E-001	4.06373E-004	6	..........a	-327.68
	79	8	-1.66936E-001	-2.17084E-001	-1.92010E-001	2.10736E-008	-1.72826E-008	3.83562E-008	-2.17000E-001	4.00373E-004	6	..........a	-327.68
	80	8.1	-1.64859E-001	-2.14917E-001	-1.89888E-001	2.09796E-008	-1.67439E-008	3.77235E-008	-2.15000E-001	4.12539E-004	6	..........a	-327.68
	81	8.2	-1.62836E-001	-2.12961E-001	-1.87898E-001	2.06525E-008	-1.62358E-008	3.68884E-008	-2.13000E-001	3.98539E-004	6	..........a	-327.68
	82	8.3	-1.60970E-001	-2.10864E-001	-1.85917E-001	2.05842E-008	-1.55851E-008	3.61693E-008	-2.11000E-001	4.03706E-004	6	..........a	-327.68
	83	8.4	-1.58907E-001	-2.08981E-001	-1.83944E-001	2.04288E-008	-1.50520E-008	3.54808E-008	-2.09000E-001	3.99706E-004	6	..........a	-327.68
	84	8.5	-1.56970E-001	-2.06906E-001	-1.81938E-001	2.01928E-008	-1.47686E-008	3.49614E-008	-2.07000E-001	4.06373E-004	6	..........a	-327.68
	85	8.6	-1.54868E-001	-2.04949E-001	-1.79908E-001	2.02122E-008	-1.44156E-008	3.46277E-008	-2.05000E-001	4.03706E-004	6	..........a	-327.68
	86	8.7	-1.53030E-001	-2.02864E-001	-1.77947E-001	2.02725E-008	-1.40065E-008	3.42790E-008	-2.03000E-001	4.01706E-004	6	..........a	-327.68
	87	8.8	-1.50928E-001	-2.00979E-001	-1.75953E-001	1.99608E-008	-1.38212E-008	3.37820E-008	-2.01000E-001	4.10873E-004	6	..........a	-327.68
	88	8.9	-1.48983E-001	-1.98941E-001	-1.73962E-001	1.99715E-008	-1.36642E-008	3.36356E-008	-1.99000E-001	3.98873E-004	6	..........a	-327.68
	89	9	-1.46895E-001	-1.96952E-001	-1.71923E-001	1.99275E-008	-1.31624E-008	3.30899E-008	-1.97000E-001	4.09206E-004	6	..........a	-327.68
	90	9.1	-1.44970E-001	-1.94909E-001	-1.69939E-001	1.99001E-008	-1.30841E-008	3.29842E-008	-1.95000E-001	3.96373E-004	6	..........a	-327.68
	91	9.2	-1.42927E-001	-1.92944E-001	-1.67936E-001	1.98084E-008	-1.28054E-008	3.26138E-008	-1.93000E-001	3.92373E-004	6	..........a	-327.68
	92	9.3	-1.40960E-001	-1.90920E-001	-1.65940E-001	1.99345E-008	-1.26610E-008	3.25955E-008	-1.91000E-001	4.07706E-004	6	..........a	-327.68
	93	9.4	-1.38824E-001	-1.88932E-001	-1.63878E-001	1.98281E-008	-1.24120E-008	3.22401E-008	-1.89000E-001	3.98206E-004	6	..........a	-327.68
	94	9.5	-1.37027E-001	-1.86838E-001	-1.61932E-001	1.97051E-008	-1.22006E-008	3.19057E-008	-1.87000E-001	3.93373E-004	6	..........a	-327.68
	95	9.6	-1.34927E-001	-1.85000E-001	-1.59963E-001	1.97781E-008	-1.20479E-008	3.18260E-008	-1.85000E-001	4.06539E-004	6	..........a	-327.68
	96	9.7	-1.32939E-001	-1.82901E-001	-1.57920E-001	1.97678E-008	-1.19506E-008	3.17184E-008	-1.83000E-001	3.94206E-004	6	..........a	-327.68
	97	9.8	-1.30849E-001	-1.80924E-001	-1.55887E-001	1.97001E-008	-1.17983E-008	3.14983E-008	-1.81000E-001	4.11373E-004	6	..........a	-327.68
	98	9.9	-1.28959E-001	-1.78865E-001	-1.53912E-001	1.98161E-008	-1.17712E-008	3.15874E-008	-1.79000E-001	4.05539E-004	6	..........a	-327.68
	99	10	-1.26928E-001	-1.77002E-001	-1.51965E-001	1.97974E-008	-1.15726E-008	3.13700E-008	-1.77000E-001	4.06539E-004	6	..........a	-327.68
	100	10.1	-1.24981E-001	-1.74919E-001	-1.49950E-001	1.97688E-008	-1.13939E-008	3.11626E-008	-1.75000E-001	3.92373E-004	6	..........a	-327.68
