EXPLAIN
TAG	SQUARE_WAVE
TITLE	LABEL	Square Wave Voltammetry	Test Identifier
DATE	LABEL	8/31/2020	Date
TIME	LABEL	12:36:22	Time
NOTES	NOTES	1	Notes...
	
PSTAT	PSTAT	REF600-24079	Potentiostat
VINIT	QUANT	-3.50000E-001	Initial E (V)
VFINAL	QUANT	-1.50000E-001	Final E (V)
STEPSIZE	QUANT	2.00000E+000	Step Size (mV)
TIMERRES	QUANT	3.33340E-005	&Timer Resolution
FREQUENCY	QUANT	1.00000E+001	Frequency (Hz)
PULSESIZE	QUANT	2.50000E+001	Pulse Size E (mV)
PULSEON	QUANT	1.00000E-001	Pulse &Time (s)
NOISEREJECT	TOGGLE	F	Noise Rejection
AREA	QUANT	2.00000E-002	Sample Area (cm^2)
IMODE	SELECTOR	1	I/E Range Mode
IRANGE	QUANT	1.00000E-003	Max Current (mA)
EQDELAY	IQUANT	10	Equil. Time (s)
IRCOMP	SELECTOR	0	IRComp
PFCOR	QUANT	5.00000E+001	PF Corr. (ohm)
CYCLES	IQUANT	101	C&ycles (#)
ELECTRODETYPE	SELECTOR	0	Electrode Type
STRIPPING	TOGGLE	F	Used for Stripping
POLARITY	TOGGLE	F	Signal Polarity
LINEFREQ	IQUANT	60	Line Frequency (Hz)
INTPERIOD	QUANT	3.3334E-005	Integration Period (s)
SEQUENCER	TOGGLE	TRUE	Run as Sequence
PSTATMODEL	IQUANT	4	Pstat Model
PSTATSECTION	LABEL	REF600-24079	Pstat Section
PSTATSERIALNO	LABEL	24079	Pstat Serial Number
CTRLMODE	IQUANT	1	Control Mode
ELECTROMETER	IQUANT	0	RE=0 or CS=1
IESTAB	IQUANT	2	I/E Stability
CASPEED	IQUANT	6	Control Amp Speed
CONVENTION	IQUANT	1	Current Convention
ICHRANGE	IQUANT	2	Ich Range
ICHRANGEMODE	TOGGLE	F	Ich Auto Range
ICHOFFSETENABLE	TOGGLE	F	Ich Offset Enable
ICHOFFSET	QUANT	0	Ich Offset (V)
ICHFILTER	IQUANT	2	Ich Filter
VCHRANGE	IQUANT	2	Vch Range
VCHRANGEMODE	TOGGLE	F	Vch Auto Range
VCHOFFSETENABLE	TOGGLE	F	Vch Offset Enable
VCHOFFSET	QUANT	0	Vch Offset (V)
VCHFILTER	IQUANT	2	Vch Filter
ACHRANGE	IQUANT	2	Ach Range
ACHOFFSETENABLE	TOGGLE	F	Ach Offset Enable
ACHOFFSET	QUANT	0	Ach Offset (V)
ACHFILTER	IQUANT	1	Ach Filter
IERANGELOWERLIMIT	IQUANT	1	I/E Range Lower Limit
IERANGEMODE	TOGGLE	F	I/E AutoRange
IERANGE	IQUANT	6	I/E Range
POSFEEDENABLE	TOGGLE	F	Positive Feedback IR Comp
POSFEEDRESISTANCE	QUANT	0	Positive Feedback Resistance (ohm)
ACHSELECT	IQUANT	0	Ach Select
SENSECABLEID	IQUANT	13	Sense Cable ID
PWRCABLEID	IQUANT	13	Power Cable ID
DCCALDATE	LABEL	6/30/2020	DC Calibration Date
ACCALDATE	LABEL	6/30/2020	AC Calibration Date
THERMOSELECT	IQUANT	1	Thermo Select
FRAMEWORKVERSION	LABEL	7.8.2	Framework Version
INSTRUMENTVERSION	LABEL	4.40	Instrument Version
CURVE	TABLE	101
	Pt	T	Vfwd	Vrev	Vstep	Ifwd	Irev	Idif	Sig	Ach	IERange	Over	Temp
	#	s	V	V	V	A	A	A	V	V	#	bits	deg C
	0	0.1	-3.24832E-001	-3.74869E-001	-3.49850E-001	-1.05501E-008	-4.48295E-008	3.42794E-008	-3.75000E-001	3.69373E-004	6	..........a	-327.68
	1	0.2	-3.22842E-001	-3.72872E-001	-3.47857E-001	3.82707E-009	-3.93888E-008	4.32158E-008	-3.73000E-001	3.48539E-004	6	..........a	-327.68
	2	0.3	-3.20873E-001	-3.70773E-001	-3.45823E-001	6.76945E-009	-3.73238E-008	4.40933E-008	-3.71000E-001	3.49373E-004	6	..........a	-327.68
	3	0.4	-3.18884E-001	-3.68867E-001	-3.43875E-001	8.17262E-009	-3.62407E-008	4.44133E-008	-3.69000E-001	3.44206E-004	6	..........a	-327.68
	4	0.5	-3.16701E-001	-3.66915E-001	-3.41808E-001	9.22176E-009	-3.50339E-008	4.42556E-008	-3.67000E-001	3.40706E-004	6	..........a	-327.68
	5	0.6	-3.14859E-001	-3.64833E-001	-3.39846E-001	1.00662E-008	-3.44145E-008	4.44807E-008	-3.65000E-001	3.48706E-004	6	..........a	-327.68
	6	0.7	-3.12865E-001	-3.62840E-001	-3.37852E-001	1.06623E-008	-3.36474E-008	4.43096E-008	-3.63000E-001	3.36373E-004	6	..........a	-327.68
	7	0.8	-3.10861E-001	-3.60867E-001	-3.35864E-001	1.15977E-008	-3.33973E-008	4.49951E-008	-3.61000E-001	3.44206E-004	6	..........a	-327.68
	8	0.9	-3.08818E-001	-3.58866E-001	-3.33842E-001	1.19628E-008	-3.29793E-008	4.49421E-008	-3.59000E-001	3.52039E-004	6	..........a	-327.68
	9	1	-3.06823E-001	-3.56833E-001	-3.31828E-001	1.26422E-008	-3.26636E-008	4.53058E-008	-3.57000E-001	3.54539E-004	6	..........a	-327.68
	10	1.1	-3.04872E-001	-3.54833E-001	-3.29852E-001	1.34830E-008	-3.20745E-008	4.55575E-008	-3.55000E-001	3.41539E-004	6	..........a	-327.68
	11	1.2	-3.02898E-001	-3.52891E-001	-3.27895E-001	1.42241E-008	-3.18991E-008	4.61232E-008	-3.53000E-001	3.42206E-004	6	..........a	-327.68
	12	1.3	-3.00837E-001	-3.50879E-001	-3.25858E-001	1.50312E-008	-3.17208E-008	4.67519E-008	-3.51000E-001	3.38539E-004	6	..........a	-327.68
	13	1.4	-2.98841E-001	-3.48864E-001	-3.23852E-001	1.56742E-008	-3.15658E-008	4.72400E-008	-3.49000E-001	3.35206E-004	6	..........a	-327.68
	14	1.5	-2.96884E-001	-3.46862E-001	-3.21873E-001	1.66057E-008	-3.13317E-008	4.79374E-008	-3.47000E-001	3.46373E-004	6	..........a	-327.68
	15	1.6	-2.94880E-001	-3.44888E-001	-3.19884E-001	1.73625E-008	-3.12467E-008	4.86092E-008	-3.45000E-001	3.51706E-004	6	..........a	-327.68
	16	1.7	-2.92759E-001	-3.42879E-001	-3.17819E-001	1.84863E-008	-3.12931E-008	4.97793E-008	-3.43000E-001	3.47039E-004	6	..........a	-327.68
	17	1.8	-2.90801E-001	-3.40860E-001	-3.15831E-001	1.93727E-008	-3.13247E-008	5.06975E-008	-3.41000E-001	3.51539E-004	6	..........a	-327.68
	18	1.9	-2.88900E-001	-3.38843E-001	-3.13872E-001	2.03975E-008	-3.14301E-008	5.18276E-008	-3.39000E-001	3.43373E-004	6	..........a	-327.68
	19	2	-2.86870E-001	-3.36869E-001	-3.11869E-001	2.15650E-008	-3.16834E-008	5.32484E-008	-3.37000E-001	3.44373E-004	6	..........a	-327.68
	20	2.1	-2.84775E-001	-3.34871E-001	-3.09823E-001	2.28675E-008	-3.19641E-008	5.48316E-008	-3.35000E-001	3.55373E-004	6	..........a	-327.68
	21	2.2	-2.82822E-001	-3.32790E-001	-3.07806E-001	2.41580E-008	-3.21662E-008	5.63242E-008	-3.33000E-001	3.52373E-004	6	..........a	-327.68
	22	2.3	-2.80874E-001	-3.30833E-001	-3.05853E-001	2.55468E-008	-3.25582E-008	5.81051E-008	-3.31000E-001	3.46039E-004	6	..........a	-327.68
	23	2.4	-2.78856E-001	-3.28866E-001	-3.03861E-001	2.71530E-008	-3.31666E-008	6.03197E-008	-3.29000E-001	3.67373E-004	6	..........a	-327.68
	24	2.5	-2.76839E-001	-3.26861E-001	-3.01850E-001	2.85605E-008	-3.37660E-008	6.23266E-008	-3.27000E-001	3.60206E-004	6	..........a	-327.68
	25	2.6	-2.74836E-001	-3.24857E-001	-2.99846E-001	3.03374E-008	-3.45035E-008	6.48409E-008	-3.25000E-001	3.61539E-004	6	..........a	-327.68
	26	2.7	-2.72870E-001	-3.22848E-001	-2.97859E-001	3.18443E-008	-3.52902E-008	6.71345E-008	-3.23000E-001	3.58373E-004	6	..........a	-327.68
	27	2.8	-2.70880E-001	-3.20876E-001	-2.95878E-001	3.33578E-008	-3.60457E-008	6.94035E-008	-3.21000E-001	3.42206E-004	6	..........a	-327.68
	28	2.9	-2.68860E-001	-3.18888E-001	-2.93874E-001	3.50430E-008	-3.72688E-008	7.23119E-008	-3.19000E-001	3.53039E-004	6	..........a	-327.68
	29	3	-2.66813E-001	-3.16715E-001	-2.91764E-001	3.65732E-008	-3.84060E-008	7.49792E-008	-3.17000E-001	3.55706E-004	6	..........a	-327.68
	30	3.1	-2.64883E-001	-3.14880E-001	-2.89881E-001	3.83241E-008	-3.93934E-008	7.77176E-008	-3.15000E-001	3.56539E-004	6	..........a	-327.68
	31	3.2	-2.62886E-001	-3.12893E-001	-2.87889E-001	3.98770E-008	-4.06719E-008	8.05489E-008	-3.13000E-001	3.46873E-004	6	..........a	-327.68
	32	3.3	-2.60803E-001	-3.10859E-001	-2.85831E-001	4.13622E-008	-4.21551E-008	8.35173E-008	-3.11000E-001	3.69206E-004	6	..........a	-327.68
	33	3.4	-2.58814E-001	-3.08864E-001	-2.83839E-001	4.26463E-008	-4.36423E-008	8.62886E-008	-3.09000E-001	3.52539E-004	6	..........a	-327.68
	34	3.5	-2.56866E-001	-3.06841E-001	-2.81853E-001	4.38412E-008	-4.50171E-008	8.88583E-008	-3.07000E-001	3.62373E-004	6	..........a	-327.68
	35	3.6	-2.54889E-001	-3.04895E-001	-2.79892E-001	4.49366E-008	-4.65563E-008	9.14930E-008	-3.05000E-001	3.44373E-004	6	..........a	-327.68
	36	3.7	-2.52813E-001	-3.02891E-001	-2.77852E-001	4.58384E-008	-4.79802E-008	9.38186E-008	-3.03000E-001	3.41873E-004	6	..........a	-327.68
	37	3.8	-2.50846E-001	-3.00881E-001	-2.75863E-001	4.65598E-008	-4.95667E-008	9.61266E-008	-3.01000E-001	3.49706E-004	6	..........a	-327.68
	38	3.9	-2.48868E-001	-2.98853E-001	-2.73860E-001	4.70509E-008	-5.09609E-008	9.80118E-008	-2.99000E-001	3.53039E-004	6	..........a	-327.68
	39	4	-2.46866E-001	-2.96872E-001	-2.71869E-001	4.74186E-008	-5.22937E-008	9.97124E-008	-2.97000E-001	3.62539E-004	6	..........a	-327.68
	40	4.1	-2.44868E-001	-2.94876E-001	-2.69872E-001	4.76370E-008	-5.36192E-008	1.01256E-007	-2.95000E-001	3.58873E-004	6	..........a	-327.68
	41	4.2	-2.42781E-001	-2.92776E-001	-2.67779E-001	4.77040E-008	-5.47357E-008	1.02440E-007	-2.93000E-001	3.51539E-004	6	..........a	-327.68
	42	4.3	-2.40869E-001	-2.90820E-001	-2.65844E-001	4.76110E-008	-5.58179E-008	1.03429E-007	-2.91000E-001	3.58539E-004	6	..........a	-327.68
	43	4.4	-2.38896E-001	-2.88887E-001	-2.63891E-001	4.71096E-008	-5.66720E-008	1.03782E-007	-2.89000E-001	3.58039E-004	6	..........a	-327.68
	44	4.5	-2.36809E-001	-2.86880E-001	-2.61845E-001	4.65655E-008	-5.74567E-008	1.04022E-007	-2.87000E-001	3.64706E-004	6	..........a	-327.68
	45	4.6	-2.34812E-001	-2.84804E-001	-2.59808E-001	4.58884E-008	-5.78498E-008	1.03738E-007	-2.85000E-001	3.57039E-004	6	..........a	-327.68
	46	4.7	-2.32833E-001	-2.82831E-001	-2.57832E-001	4.50310E-008	-5.81115E-008	1.03142E-007	-2.83000E-001	3.70539E-004	6	..........a	-327.68
	47	4.8	-2.30844E-001	-2.80903E-001	-2.55874E-001	4.42015E-008	-5.80998E-008	1.02301E-007	-2.81000E-001	3.82873E-004	6	..........a	-327.68
	48	4.9	-2.28756E-001	-2.78859E-001	-2.53807E-001	4.32071E-008	-5.80491E-008	1.01256E-007	-2.79000E-001	3.69706E-004	6	..........a	-327.68
	49	5	-2.26825E-001	-2.76860E-001	-2.51842E-001	4.21339E-008	-5.74514E-008	9.95853E-008	-2.77000E-001	3.51373E-004	6	..........a	-327.68
	50	5.1	-2.24868E-001	-2.74850E-001	-2.49859E-001	4.11808E-008	-5.67376E-008	9.79185E-008	-2.75000E-001	3.60373E-004	6	..........a	-327.68
	51	5.2	-2.22860E-001	-2.72863E-001	-2.47861E-001	3.99093E-008	-5.59169E-008	9.58262E-008	-2.73000E-001	3.70706E-004	6	..........a	-327.68
	52	5.3	-2.20835E-001	-2.70852E-001	-2.45843E-001	3.87732E-008	-5.46990E-008	9.34722E-008	-2.71000E-001	3.59873E-004	6	..........a	-327.68
	53	5.4	-2.18861E-001	-2.68860E-001	-2.43861E-001	3.78757E-008	-5.33039E-008	9.11796E-008	-2.69000E-001	3.55539E-004	6	..........a	-327.68
	54	5.5	-2.16877E-001	-2.66813E-001	-2.41845E-001	3.68279E-008	-5.20410E-008	8.88690E-008	-2.67000E-001	3.58873E-004	6	..........a	-327.68
	55	5.6	-2.14863E-001	-2.64885E-001	-2.39874E-001	3.56438E-008	-5.04832E-008	8.61270E-008	-2.65000E-001	3.60373E-004	6	..........a	-327.68
	56	5.7	-2.12819E-001	-2.62880E-001	-2.37850E-001	3.45606E-008	-4.87203E-008	8.32809E-008	-2.63000E-001	3.50039E-004	6	..........a	-327.68
	57	5.8	-2.10838E-001	-2.60843E-001	-2.35840E-001	3.35855E-008	-4.70894E-008	8.06749E-008	-2.61000E-001	3.48873E-004	6	..........a	-327.68
	58	5.9	-2.08867E-001	-2.58820E-001	-2.33844E-001	3.27057E-008	-4.50728E-008	7.77786E-008	-2.59000E-001	3.52539E-004	6	..........a	-327.68
	59	6	-2.06864E-001	-2.56877E-001	-2.31871E-001	3.17320E-008	-4.33673E-008	7.50992E-008	-2.57000E-001	3.61206E-004	6	..........a	-327.68
	60	6.1	-2.04780E-001	-2.54892E-001	-2.29836E-001	3.09599E-008	-4.15204E-008	7.24802E-008	-2.55000E-001	3.56873E-004	6	..........a	-327.68
	61	6.2	-2.02827E-001	-2.52777E-001	-2.27802E-001	2.99857E-008	-3.95464E-008	6.95322E-008	-2.53000E-001	3.54039E-004	6	..........a	-327.68
	62	6.3	-2.00858E-001	-2.50834E-001	-2.25846E-001	2.94727E-008	-3.76925E-008	6.71652E-008	-2.51000E-001	3.47539E-004	6	..........a	-327.68
	63	6.4	-1.98865E-001	-2.48866E-001	-2.23865E-001	2.87609E-008	-3.58420E-008	6.46029E-008	-2.49000E-001	3.53706E-004	6	..........a	-327.68
	64	6.5	-1.96853E-001	-2.46854E-001	-2.21853E-001	2.79581E-008	-3.41364E-008	6.20946E-008	-2.47000E-001	3.56206E-004	6	..........a	-327.68
	65	6.6	-1.94832E-001	-2.44869E-001	-2.19851E-001	2.74471E-008	-3.24825E-008	5.99296E-008	-2.45000E-001	3.46206E-004	6	..........a	-327.68
	66	6.7	-1.92872E-001	-2.42793E-001	-2.17833E-001	2.69013E-008	-3.10174E-008	5.79187E-008	-2.43000E-001	3.51873E-004	6	..........a	-327.68
	67	6.8	-1.90885E-001	-2.40881E-001	-2.15883E-001	2.64916E-008	-2.96212E-008	5.61128E-008	-2.41000E-001	3.43539E-004	6	..........a	-327.68
	68	6.9	-1.88739E-001	-2.38897E-001	-2.13818E-001	2.58782E-008	-2.82230E-008	5.41012E-008	-2.39000E-001	3.50539E-004	6	..........a	-327.68
	69	7	-1.86847E-001	-2.36821E-001	-2.11834E-001	2.56355E-008	-2.67955E-008	5.24310E-008	-2.37000E-001	3.54373E-004	6	..........a	-327.68
	70	7.1	-1.84872E-001	-2.34827E-001	-2.09849E-001	2.52401E-008	-2.58224E-008	5.10625E-008	-2.35000E-001	3.35706E-004	6	..........a	-327.68
	71	7.2	-1.82829E-001	-2.32853E-001	-2.07841E-001	2.47777E-008	-2.47349E-008	4.95126E-008	-2.33000E-001	3.43706E-004	6	..........a	-327.68
	72	7.3	-1.80777E-001	-2.30834E-001	-2.05805E-001	2.45177E-008	-2.38465E-008	4.83642E-008	-2.31000E-001	3.70373E-004	6	..........a	-327.68
	73	7.4	-1.78805E-001	-2.28800E-001	-2.03803E-001	2.43663E-008	-2.29447E-008	4.73110E-008	-2.29000E-001	3.54039E-004	6	..........a	-327.68
	74	7.5	-1.76864E-001	-2.26828E-001	-2.01846E-001	2.42923E-008	-2.22032E-008	4.64956E-008	-2.27000E-001	3.57373E-004	6	..........a	-327.68
	75	7.6	-1.74872E-001	-2.24875E-001	-1.99873E-001	2.37476E-008	-2.14435E-008	4.51911E-008	-2.25000E-001	3.57373E-004	6	..........a	-327.68
	76	7.7	-1.72820E-001	-2.22867E-001	-1.97844E-001	2.39126E-008	-2.07957E-008	4.47084E-008	-2.23000E-001	3.56039E-004	6	..........a	-327.68
	77	7.8	-1.70830E-001	-2.20846E-001	-1.95838E-001	2.35733E-008	-2.03007E-008	4.38739E-008	-2.21000E-001	3.69039E-004	6	..........a	-327.68
	78	7.9	-1.68852E-001	-2.18849E-001	-1.93850E-001	2.34429E-008	-1.97606E-008	4.32035E-008	-2.19000E-001	3.50706E-004	6	..........a	-327.68
	79	8	-1.66855E-001	-2.16890E-001	-1.91872E-001	2.35132E-008	-1.90238E-008	4.25371E-008	-2.17000E-001	3.68373E-004	6	..........a	-327.68
	80	8.1	-1.64716E-001	-2.14873E-001	-1.89794E-001	2.34119E-008	-1.86735E-008	4.20854E-008	-2.15000E-001	3.58706E-004	6	..........a	-327.68
	81	8.2	-1.62802E-001	-2.12866E-001	-1.87834E-001	2.30775E-008	-1.83674E-008	4.14449E-008	-2.13000E-001	3.49706E-004	6	..........a	-327.68
	82	8.3	-1.60877E-001	-2.10851E-001	-1.85864E-001	2.34192E-008	-1.79500E-008	4.13693E-008	-2.11000E-001	3.39706E-004	6	..........a	-327.68
	83	8.4	-1.58860E-001	-2.08869E-001	-1.83865E-001	2.33289E-008	-1.76910E-008	4.10199E-008	-2.09000E-001	3.62873E-004	6	..........a	-327.68
	84	8.5	-1.56777E-001	-2.06867E-001	-1.81822E-001	2.32742E-008	-1.71726E-008	4.04468E-008	-2.07000E-001	3.58373E-004	6	..........a	-327.68
	85	8.6	-1.54810E-001	-2.04796E-001	-1.79803E-001	2.31525E-008	-1.68826E-008	4.00351E-008	-2.05000E-001	3.51206E-004	6	..........a	-327.68
	86	8.7	-1.52856E-001	-2.02829E-001	-1.77842E-001	2.34072E-008	-1.67625E-008	4.01698E-008	-2.03000E-001	3.57873E-004	6	..........a	-327.68
	87	8.8	-1.50837E-001	-2.00855E-001	-1.75846E-001	2.33205E-008	-1.64928E-008	3.98134E-008	-2.01000E-001	3.61539E-004	6	..........a	-327.68
	88	8.9	-1.48820E-001	-1.98859E-001	-1.73839E-001	2.32069E-008	-1.60901E-008	3.92970E-008	-1.99000E-001	3.47873E-004	6	..........a	-327.68
	89	9	-1.46809E-001	-1.96841E-001	-1.71825E-001	2.33966E-008	-1.60508E-008	3.94474E-008	-1.97000E-001	3.47373E-004	6	..........a	-327.68
	90	9.1	-1.44852E-001	-1.94838E-001	-1.69845E-001	2.33512E-008	-1.58664E-008	3.92177E-008	-1.95000E-001	3.54539E-004	6	..........a	-327.68
	91	9.2	-1.42853E-001	-1.92849E-001	-1.67851E-001	2.33706E-008	-1.57157E-008	3.90863E-008	-1.93000E-001	3.47373E-004	6	..........a	-327.68
	92	9.3	-1.40843E-001	-1.90892E-001	-1.65868E-001	2.34082E-008	-1.54124E-008	3.88206E-008	-1.91000E-001	3.68039E-004	6	..........a	-327.68
	93	9.4	-1.38801E-001	-1.88697E-001	-1.63749E-001	2.36173E-008	-1.53917E-008	3.90090E-008	-1.89000E-001	3.52539E-004	6	..........a	-327.68
	94	9.5	-1.36843E-001	-1.86850E-001	-1.61847E-001	2.34062E-008	-1.52444E-008	3.86506E-008	-1.87000E-001	3.60206E-004	6	..........a	-327.68
	95	9.6	-1.34864E-001	-1.84863E-001	-1.59863E-001	2.37199E-008	-1.50343E-008	3.87543E-008	-1.85000E-001	3.52539E-004	6	..........a	-327.68
	96	9.7	-1.32752E-001	-1.82836E-001	-1.57794E-001	2.38313E-008	-1.49557E-008	3.87869E-008	-1.83000E-001	3.55539E-004	6	..........a	-327.68
	97	9.8	-1.30795E-001	-1.80779E-001	-1.55787E-001	2.36476E-008	-1.48453E-008	3.84929E-008	-1.81000E-001	3.62373E-004	6	..........a	-327.68
	98	9.9	-1.28852E-001	-1.78811E-001	-1.53831E-001	2.37806E-008	-1.46709E-008	3.84516E-008	-1.79000E-001	3.61873E-004	6	..........a	-327.68
	99	10	-1.26860E-001	-1.76847E-001	-1.51853E-001	2.38286E-008	-1.44313E-008	3.82599E-008	-1.77000E-001	3.54539E-004	6	..........a	-327.68
	100	10.1	-1.24781E-001	-1.74859E-001	-1.49820E-001	2.37776E-008	-1.44263E-008	3.82039E-008	-1.75000E-001	3.37539E-004	6	..........a	-327.68
