EXPLAIN
TAG	SQUARE_WAVE
TITLE	LABEL	Square Wave Voltammetry	Test Identifier
DATE	LABEL	8/25/2020	Date
TIME	LABEL	13:21:06	Time
NOTES	NOTES	1	Notes...
	
PSTAT	PSTAT	REF600-24079	Potentiostat
VINIT	QUANT	-3.50000E-001	Initial E (V)
VFINAL	QUANT	-1.50000E-001	Final E (V)
STEPSIZE	QUANT	2.00000E+000	Step Size (mV)
TIMERRES	QUANT	3.33340E-005	&Timer Resolution
FREQUENCY	QUANT	1.00000E+001	Frequency (Hz)
PULSESIZE	QUANT	2.50000E+001	Pulse Size E (mV)
PULSEON	QUANT	1.00000E-001	Pulse &Time (s)
NOISEREJECT	TOGGLE	F	Noise Rejection
AREA	QUANT	2.00000E-002	Sample Area (cm^2)
IMODE	SELECTOR	1	I/E Range Mode
IRANGE	QUANT	1.00000E-003	Max Current (mA)
EQDELAY	IQUANT	10	Equil. Time (s)
IRCOMP	SELECTOR	0	IRComp
PFCOR	QUANT	5.00000E+001	PF Corr. (ohm)
CYCLES	IQUANT	101	C&ycles (#)
ELECTRODETYPE	SELECTOR	0	Electrode Type
STRIPPING	TOGGLE	F	Used for Stripping
POLARITY	TOGGLE	F	Signal Polarity
LINEFREQ	IQUANT	60	Line Frequency (Hz)
INTPERIOD	QUANT	3.3334E-005	Integration Period (s)
SEQUENCER	TOGGLE	TRUE	Run as Sequence
PSTATMODEL	IQUANT	4	Pstat Model
PSTATSECTION	LABEL	REF600-24079	Pstat Section
PSTATSERIALNO	LABEL	24079	Pstat Serial Number
CTRLMODE	IQUANT	1	Control Mode
ELECTROMETER	IQUANT	0	RE=0 or CS=1
IESTAB	IQUANT	2	I/E Stability
CASPEED	IQUANT	6	Control Amp Speed
CONVENTION	IQUANT	1	Current Convention
ICHRANGE	IQUANT	2	Ich Range
ICHRANGEMODE	TOGGLE	F	Ich Auto Range
ICHOFFSETENABLE	TOGGLE	F	Ich Offset Enable
ICHOFFSET	QUANT	0	Ich Offset (V)
ICHFILTER	IQUANT	2	Ich Filter
VCHRANGE	IQUANT	2	Vch Range
VCHRANGEMODE	TOGGLE	F	Vch Auto Range
VCHOFFSETENABLE	TOGGLE	F	Vch Offset Enable
VCHOFFSET	QUANT	0	Vch Offset (V)
VCHFILTER	IQUANT	2	Vch Filter
ACHRANGE	IQUANT	2	Ach Range
ACHOFFSETENABLE	TOGGLE	F	Ach Offset Enable
ACHOFFSET	QUANT	0	Ach Offset (V)
ACHFILTER	IQUANT	1	Ach Filter
IERANGELOWERLIMIT	IQUANT	1	I/E Range Lower Limit
IERANGEMODE	TOGGLE	F	I/E AutoRange
IERANGE	IQUANT	6	I/E Range
POSFEEDENABLE	TOGGLE	F	Positive Feedback IR Comp
POSFEEDRESISTANCE	QUANT	0	Positive Feedback Resistance (ohm)
ACHSELECT	IQUANT	0	Ach Select
SENSECABLEID	IQUANT	13	Sense Cable ID
PWRCABLEID	IQUANT	13	Power Cable ID
DCCALDATE	LABEL	6/30/2020	DC Calibration Date
ACCALDATE	LABEL	6/30/2020	AC Calibration Date
THERMOSELECT	IQUANT	1	Thermo Select
FRAMEWORKVERSION	LABEL	7.8.2	Framework Version
INSTRUMENTVERSION	LABEL	4.40	Instrument Version
CURVE	TABLE	101
	Pt	T	Vfwd	Vrev	Vstep	Ifwd	Irev	Idif	Sig	Ach	IERange	Over	Temp
	#	s	V	V	V	A	A	A	V	V	#	bits	deg C
	0	0.1	-3.24870E-001	-3.74923E-001	-3.49896E-001	-4.99172E-009	-3.07060E-008	2.57143E-008	-3.75000E-001	4.13039E-004	6	..........a	-327.68
	1	0.2	-3.22869E-001	-3.72908E-001	-3.47889E-001	6.28338E-009	-2.64184E-008	3.27018E-008	-3.73000E-001	3.95539E-004	6	..........a	-327.68
	2	0.3	-3.20891E-001	-3.70795E-001	-3.45843E-001	8.42866E-009	-2.49699E-008	3.33986E-008	-3.71000E-001	3.98706E-004	6	..........a	-327.68
	3	0.4	-3.19065E-001	-3.68930E-001	-3.43998E-001	9.48379E-009	-2.42618E-008	3.37456E-008	-3.69000E-001	3.87873E-004	6	..........a	-327.68
	4	0.5	-3.16825E-001	-3.67079E-001	-3.41952E-001	1.03299E-008	-2.35941E-008	3.39240E-008	-3.67000E-001	3.88539E-004	6	..........a	-327.68
	5	0.6	-3.14836E-001	-3.64856E-001	-3.39846E-001	1.10737E-008	-2.30730E-008	3.41467E-008	-3.65000E-001	3.85039E-004	6	..........a	-327.68
	6	0.7	-3.12852E-001	-3.62809E-001	-3.37831E-001	1.14870E-008	-2.25793E-008	3.40663E-008	-3.63000E-001	3.82039E-004	6	..........a	-327.68
	7	0.8	-3.11058E-001	-3.60871E-001	-3.35965E-001	1.22785E-008	-2.23719E-008	3.46504E-008	-3.61000E-001	4.01206E-004	6	..........a	-327.68
	8	0.9	-3.08837E-001	-3.59052E-001	-3.33944E-001	1.27925E-008	-2.22639E-008	3.50565E-008	-3.59000E-001	4.05873E-004	6	..........a	-327.68
	9	1	-3.06828E-001	-3.56887E-001	-3.31858E-001	1.33373E-008	-2.21039E-008	3.54412E-008	-3.57000E-001	4.06873E-004	6	..........a	-327.68
	10	1.1	-3.04883E-001	-3.54846E-001	-3.29865E-001	1.39804E-008	-2.20309E-008	3.60112E-008	-3.55000E-001	3.86039E-004	6	..........a	-327.68
	11	1.2	-3.03015E-001	-3.52909E-001	-3.27962E-001	1.45138E-008	-2.18262E-008	3.63400E-008	-3.53000E-001	3.83039E-004	6	..........a	-327.68
	12	1.3	-3.00891E-001	-3.50938E-001	-3.25914E-001	1.51865E-008	-2.18452E-008	3.70317E-008	-3.51000E-001	3.91039E-004	6	..........a	-327.68
	13	1.4	-2.98856E-001	-3.48902E-001	-3.23879E-001	1.60520E-008	-2.19235E-008	3.79755E-008	-3.49000E-001	3.83039E-004	6	..........a	-327.68
	14	1.5	-2.96900E-001	-3.46878E-001	-3.21889E-001	1.66610E-008	-2.19729E-008	3.86339E-008	-3.47000E-001	3.97873E-004	6	..........a	-327.68
	15	1.6	-2.94916E-001	-3.44960E-001	-3.19938E-001	1.74865E-008	-2.21302E-008	3.96167E-008	-3.45000E-001	3.79206E-004	6	..........a	-327.68
	16	1.7	-2.92931E-001	-3.43106E-001	-3.18018E-001	1.85583E-008	-2.22532E-008	4.08115E-008	-3.43000E-001	3.88206E-004	6	..........a	-327.68
	17	1.8	-2.90802E-001	-3.40888E-001	-3.15845E-001	1.94867E-008	-2.24826E-008	4.19693E-008	-3.41000E-001	3.93206E-004	6	..........a	-327.68
	18	1.9	-2.88890E-001	-3.38815E-001	-3.13852E-001	2.05762E-008	-2.29030E-008	4.34792E-008	-3.39000E-001	3.94539E-004	6	..........a	-327.68
	19	2	-2.87098E-001	-3.36879E-001	-3.11988E-001	2.16487E-008	-2.32384E-008	4.48870E-008	-3.37000E-001	3.86373E-004	6	..........a	-327.68
	20	2.1	-2.84840E-001	-3.35016E-001	-3.09928E-001	2.28732E-008	-2.37181E-008	4.65913E-008	-3.35000E-001	3.97539E-004	6	..........a	-327.68
	21	2.2	-2.82815E-001	-3.32849E-001	-3.07832E-001	2.40470E-008	-2.42645E-008	4.83115E-008	-3.33000E-001	4.01373E-004	6	..........a	-327.68
	22	2.3	-2.80905E-001	-3.30828E-001	-3.05867E-001	2.57079E-008	-2.49886E-008	5.06964E-008	-3.31000E-001	3.99706E-004	6	..........a	-327.68
	23	2.4	-2.79030E-001	-3.28896E-001	-3.03963E-001	2.72087E-008	-2.57304E-008	5.29391E-008	-3.29000E-001	3.90039E-004	6	..........a	-327.68
	24	2.5	-2.76878E-001	-3.26939E-001	-3.01908E-001	2.87869E-008	-2.63161E-008	5.51030E-008	-3.27000E-001	4.06873E-004	6	..........a	-327.68
	25	2.6	-2.74847E-001	-3.24886E-001	-2.99866E-001	3.02748E-008	-2.73426E-008	5.76173E-008	-3.25000E-001	4.04539E-004	6	..........a	-327.68
	26	2.7	-2.72886E-001	-3.22869E-001	-2.97877E-001	3.19190E-008	-2.84257E-008	6.03447E-008	-3.23000E-001	3.94706E-004	6	..........a	-327.68
	27	2.8	-2.70916E-001	-3.20899E-001	-2.95907E-001	3.35919E-008	-2.93185E-008	6.29103E-008	-3.21000E-001	3.98873E-004	6	..........a	-327.68
	28	2.9	-2.68896E-001	-3.19112E-001	-2.94004E-001	3.52907E-008	-3.07033E-008	6.59941E-008	-3.19000E-001	3.98039E-004	6	..........a	-327.68
	29	3	-2.66785E-001	-3.16839E-001	-2.91812E-001	3.71510E-008	-3.19508E-008	6.91018E-008	-3.17000E-001	4.09873E-004	6	..........a	-327.68
	30	3.1	-2.64894E-001	-3.14838E-001	-2.89866E-001	3.87552E-008	-3.33703E-008	7.21255E-008	-3.15000E-001	3.99706E-004	6	..........a	-327.68
	31	3.2	-2.62971E-001	-3.12877E-001	-2.87924E-001	4.06238E-008	-3.47528E-008	7.53766E-008	-3.13000E-001	3.91039E-004	6	..........a	-327.68
	32	3.3	-2.60812E-001	-3.11048E-001	-2.85930E-001	4.20436E-008	-3.63020E-008	7.83456E-008	-3.11000E-001	3.97039E-004	6	..........a	-327.68
	33	3.4	-2.58812E-001	-3.08822E-001	-2.83817E-001	4.37115E-008	-3.79166E-008	8.16280E-008	-3.09000E-001	4.04039E-004	6	..........a	-327.68
	34	3.5	-2.56858E-001	-3.06835E-001	-2.81847E-001	4.48386E-008	-3.97098E-008	8.45484E-008	-3.07000E-001	4.07539E-004	6	..........a	-327.68
	35	3.6	-2.55031E-001	-3.04920E-001	-2.79976E-001	4.61525E-008	-4.14094E-008	8.75618E-008	-3.05000E-001	4.10039E-004	6	..........a	-327.68
	36	3.7	-2.52878E-001	-3.02978E-001	-2.77928E-001	4.71559E-008	-4.29406E-008	9.00965E-008	-3.03000E-001	3.95539E-004	6	..........a	-327.68
	37	3.8	-2.50836E-001	-3.00904E-001	-2.75870E-001	4.80494E-008	-4.45338E-008	9.25831E-008	-3.01000E-001	3.99873E-004	6	..........a	-327.68
	38	3.9	-2.48877E-001	-2.98868E-001	-2.73873E-001	4.91912E-008	-4.61923E-008	9.53835E-008	-2.99000E-001	4.13873E-004	6	..........a	-327.68
	39	4	-2.46905E-001	-2.96910E-001	-2.71908E-001	4.96309E-008	-4.75978E-008	9.72287E-008	-2.97000E-001	4.07539E-004	6	..........a	-327.68
	40	4.1	-2.44893E-001	-2.94878E-001	-2.69885E-001	4.98923E-008	-4.90697E-008	9.89619E-008	-2.95000E-001	4.22373E-004	6	..........a	-327.68
	41	4.2	-2.42776E-001	-2.92874E-001	-2.67825E-001	5.00936E-008	-5.03688E-008	1.00462E-007	-2.93000E-001	3.95039E-004	6	..........a	-327.68
	42	4.3	-2.40899E-001	-2.90796E-001	-2.65847E-001	5.00113E-008	-5.14176E-008	1.01429E-007	-2.91000E-001	4.09873E-004	6	..........a	-327.68
	43	4.4	-2.39084E-001	-2.88901E-001	-2.63993E-001	4.97859E-008	-5.23677E-008	1.02154E-007	-2.89000E-001	4.06706E-004	6	..........a	-327.68
	44	4.5	-2.36858E-001	-2.87057E-001	-2.61957E-001	4.95199E-008	-5.32312E-008	1.02751E-007	-2.87000E-001	4.08206E-004	6	..........a	-327.68
	45	4.6	-2.34801E-001	-2.84857E-001	-2.59829E-001	4.89221E-008	-5.37309E-008	1.02653E-007	-2.85000E-001	4.09039E-004	6	..........a	-327.68
	46	4.7	-2.32850E-001	-2.82820E-001	-2.57835E-001	4.79764E-008	-5.43627E-008	1.02339E-007	-2.83000E-001	4.02206E-004	6	..........a	-327.68
	47	4.8	-2.31025E-001	-2.80916E-001	-2.55970E-001	4.71542E-008	-5.44670E-008	1.01621E-007	-2.81000E-001	4.10373E-004	6	..........a	-327.68
	48	4.9	-2.28838E-001	-2.78985E-001	-2.53912E-001	4.63545E-008	-5.44984E-008	1.00853E-007	-2.79000E-001	4.10206E-004	6	..........a	-327.68
	49	5	-2.26813E-001	-2.76887E-001	-2.51850E-001	4.53307E-008	-5.41886E-008	9.95193E-008	-2.77000E-001	4.15706E-004	6	..........a	-327.68
	50	5.1	-2.24864E-001	-2.74871E-001	-2.49868E-001	4.40335E-008	-5.37706E-008	9.78041E-008	-2.75000E-001	4.07706E-004	6	..........a	-327.68
	51	5.2	-2.22902E-001	-2.72878E-001	-2.47890E-001	4.29487E-008	-5.30242E-008	9.59729E-008	-2.73000E-001	4.09373E-004	6	..........a	-327.68
	52	5.3	-2.20869E-001	-2.70896E-001	-2.45883E-001	4.17642E-008	-5.23447E-008	9.41090E-008	-2.71000E-001	4.08539E-004	6	..........a	-327.68
	53	5.4	-2.18862E-001	-2.68900E-001	-2.43881E-001	4.05867E-008	-5.12493E-008	9.18360E-008	-2.69000E-001	3.99706E-004	6	..........a	-327.68
	54	5.5	-2.16904E-001	-2.66786E-001	-2.41845E-001	3.93063E-008	-5.01465E-008	8.94527E-008	-2.67000E-001	4.02706E-004	6	..........a	-327.68
	55	5.6	-2.15114E-001	-2.64909E-001	-2.40012E-001	3.78284E-008	-4.89750E-008	8.68034E-008	-2.65000E-001	4.01873E-004	6	..........a	-327.68
	56	5.7	-2.12851E-001	-2.62945E-001	-2.37898E-001	3.66079E-008	-4.72298E-008	8.38377E-008	-2.63000E-001	4.08539E-004	6	..........a	-327.68
	57	5.8	-2.10816E-001	-2.60849E-001	-2.35832E-001	3.54014E-008	-4.56466E-008	8.10480E-008	-2.61000E-001	3.96039E-004	6	..........a	-327.68
	58	5.9	-2.08868E-001	-2.58820E-001	-2.33844E-001	3.39296E-008	-4.40577E-008	7.79873E-008	-2.59000E-001	4.27873E-004	6	..........a	-327.68
	59	6	-2.07014E-001	-2.56873E-001	-2.31943E-001	3.29924E-008	-4.22608E-008	7.52532E-008	-2.57000E-001	4.10039E-004	6	..........a	-327.68
	60	6.1	-2.04839E-001	-2.55037E-001	-2.29938E-001	3.17680E-008	-4.03959E-008	7.21638E-008	-2.55000E-001	3.97373E-004	6	..........a	-327.68
	61	6.2	-2.02829E-001	-2.52838E-001	-2.27834E-001	3.06195E-008	-3.86680E-008	6.92875E-008	-2.53000E-001	3.97706E-004	6	..........a	-327.68
	62	6.3	-2.00901E-001	-2.50865E-001	-2.25883E-001	2.96180E-008	-3.68024E-008	6.64204E-008	-2.51000E-001	3.92373E-004	6	..........a	-327.68
	63	6.4	-1.98969E-001	-2.48892E-001	-2.23930E-001	2.85726E-008	-3.49289E-008	6.35014E-008	-2.49000E-001	3.96039E-004	6	..........a	-327.68
	64	6.5	-1.96890E-001	-2.46909E-001	-2.21899E-001	2.78368E-008	-3.29509E-008	6.07877E-008	-2.47000E-001	3.91373E-004	6	..........a	-327.68
	65	6.6	-1.94877E-001	-2.44895E-001	-2.19886E-001	2.66123E-008	-3.15151E-008	5.81274E-008	-2.45000E-001	3.97539E-004	6	..........a	-327.68
	66	6.7	-1.92894E-001	-2.42787E-001	-2.17840E-001	2.57669E-008	-2.98465E-008	5.56134E-008	-2.43000E-001	3.90206E-004	6	..........a	-327.68
	67	6.8	-1.91110E-001	-2.40904E-001	-2.16007E-001	2.49264E-008	-2.81560E-008	5.30824E-008	-2.41000E-001	3.92039E-004	6	..........a	-327.68
	68	6.9	-1.88899E-001	-2.39064E-001	-2.13982E-001	2.43527E-008	-2.65928E-008	5.09455E-008	-2.39000E-001	3.84373E-004	6	..........a	-327.68
	69	7	-1.86805E-001	-2.36862E-001	-2.11833E-001	2.35939E-008	-2.52486E-008	4.88426E-008	-2.37000E-001	3.82873E-004	6	..........a	-327.68
	70	7.1	-1.84857E-001	-2.34808E-001	-2.09832E-001	2.29752E-008	-2.40361E-008	4.70113E-008	-2.35000E-001	3.93706E-004	6	..........a	-327.68
	71	7.2	-1.83042E-001	-2.32861E-001	-2.07951E-001	2.24608E-008	-2.27240E-008	4.51847E-008	-2.33000E-001	4.02873E-004	6	..........a	-327.68
	72	7.3	-1.80819E-001	-2.31010E-001	-2.05915E-001	2.19497E-008	-2.16328E-008	4.35825E-008	-2.31000E-001	3.92539E-004	6	..........a	-327.68
	73	7.4	-1.78819E-001	-2.28847E-001	-2.03833E-001	2.14933E-008	-2.04607E-008	4.19540E-008	-2.29000E-001	3.98873E-004	6	..........a	-327.68
	74	7.5	-1.76866E-001	-2.26834E-001	-2.01850E-001	2.10783E-008	-1.94812E-008	4.05595E-008	-2.27000E-001	3.96873E-004	6	..........a	-327.68
	75	7.6	-1.74998E-001	-2.24885E-001	-1.99941E-001	2.04829E-008	-1.84958E-008	3.89786E-008	-2.25000E-001	3.89039E-004	6	..........a	-327.68
	76	7.7	-1.72882E-001	-2.22915E-001	-1.97899E-001	2.01321E-008	-1.76510E-008	3.77831E-008	-2.23000E-001	4.03039E-004	6	..........a	-327.68
	77	7.8	-1.70843E-001	-2.20882E-001	-1.95863E-001	1.98678E-008	-1.68012E-008	3.66690E-008	-2.21000E-001	3.83206E-004	6	..........a	-327.68
	78	7.9	-1.68888E-001	-2.18867E-001	-1.93877E-001	1.96511E-008	-1.62465E-008	3.58976E-008	-2.19000E-001	3.92539E-004	6	..........a	-327.68
	79	8	-1.66902E-001	-2.16936E-001	-1.91919E-001	1.92820E-008	-1.55367E-008	3.48188E-008	-2.17000E-001	3.97873E-004	6	..........a	-327.68
	80	8.1	-1.64915E-001	-2.15110E-001	-1.90012E-001	1.89987E-008	-1.49186E-008	3.39173E-008	-2.15000E-001	3.92039E-004	6	..........a	-327.68
	81	8.2	-1.62803E-001	-2.12815E-001	-1.87809E-001	1.89023E-008	-1.42739E-008	3.31762E-008	-2.13000E-001	3.88873E-004	6	..........a	-327.68
	82	8.3	-1.60886E-001	-2.10808E-001	-1.85847E-001	1.86456E-008	-1.38482E-008	3.24938E-008	-2.11000E-001	3.92539E-004	6	..........a	-327.68
	83	8.4	-1.59083E-001	-2.08843E-001	-1.83963E-001	1.84336E-008	-1.31431E-008	3.15767E-008	-2.09000E-001	3.98039E-004	6	..........a	-327.68
	84	8.5	-1.56838E-001	-2.06992E-001	-1.81915E-001	1.83716E-008	-1.28944E-008	3.12660E-008	-2.07000E-001	3.94206E-004	6	..........a	-327.68
	85	8.6	-1.54817E-001	-2.04800E-001	-1.79809E-001	1.82649E-008	-1.25120E-008	3.07769E-008	-2.05000E-001	3.97373E-004	6	..........a	-327.68
	86	8.7	-1.52899E-001	-2.02830E-001	-1.77864E-001	1.81286E-008	-1.22893E-008	3.04179E-008	-2.03000E-001	4.00873E-004	6	..........a	-327.68
	87	8.8	-1.51037E-001	-2.00894E-001	-1.75966E-001	1.79909E-008	-1.19099E-008	2.99008E-008	-2.01000E-001	3.93706E-004	6	..........a	-327.68
	88	8.9	-1.48888E-001	-1.98942E-001	-1.73915E-001	1.79052E-008	-1.17399E-008	2.96451E-008	-1.99000E-001	3.89039E-004	6	..........a	-327.68
	89	9	-1.46847E-001	-1.96870E-001	-1.71858E-001	1.81216E-008	-1.14692E-008	2.95908E-008	-1.97000E-001	4.00206E-004	6	..........a	-327.68
	90	9.1	-1.44882E-001	-1.94856E-001	-1.69869E-001	1.78915E-008	-1.11635E-008	2.90550E-008	-1.95000E-001	4.03206E-004	6	..........a	-327.68
	91	9.2	-1.42908E-001	-1.92885E-001	-1.67897E-001	1.77182E-008	-1.08778E-008	2.85960E-008	-1.93000E-001	3.96206E-004	6	..........a	-327.68
	92	9.3	-1.40883E-001	-1.91093E-001	-1.65988E-001	1.79409E-008	-1.08771E-008	2.88180E-008	-1.91000E-001	3.98539E-004	6	..........a	-327.68
	93	9.4	-1.38790E-001	-1.88845E-001	-1.63817E-001	1.77878E-008	-1.05608E-008	2.83486E-008	-1.89000E-001	3.86539E-004	6	..........a	-327.68
	94	9.5	-1.36848E-001	-1.86800E-001	-1.61824E-001	1.75738E-008	-1.04264E-008	2.80002E-008	-1.87000E-001	3.88373E-004	6	..........a	-327.68
	95	9.6	-1.34994E-001	-1.84846E-001	-1.59920E-001	1.77062E-008	-1.03361E-008	2.80422E-008	-1.85000E-001	3.97539E-004	6	..........a	-327.68
	96	9.7	-1.32808E-001	-1.83033E-001	-1.57921E-001	1.77382E-008	-1.01777E-008	2.79159E-008	-1.83000E-001	3.93539E-004	6	..........a	-327.68
	97	9.8	-1.30802E-001	-1.80818E-001	-1.55810E-001	1.77295E-008	-1.01114E-008	2.78409E-008	-1.81000E-001	3.90373E-004	6	..........a	-327.68
	98	9.9	-1.28842E-001	-1.78818E-001	-1.53830E-001	1.77842E-008	-1.00117E-008	2.77959E-008	-1.79000E-001	3.92373E-004	6	..........a	-327.68
	99	10	-1.27049E-001	-1.76872E-001	-1.51961E-001	1.78619E-008	-9.87701E-009	2.77389E-008	-1.77000E-001	3.96039E-004	6	..........a	-327.68
	100	10.1	-1.24837E-001	-1.74963E-001	-1.49900E-001	1.76278E-008	-9.99402E-009	2.76218E-008	-1.75000E-001	3.95706E-004	6	..........a	-327.68
