EXPLAIN
TAG	SQUARE_WAVE
TITLE	LABEL	Square Wave Voltammetry	Test Identifier
DATE	LABEL	8/25/2020	Date
TIME	LABEL	14:50:11	Time
NOTES	NOTES	1	Notes...
	
PSTAT	PSTAT	REF600-24079	Potentiostat
VINIT	QUANT	-3.50000E-001	Initial E (V)
VFINAL	QUANT	-1.50000E-001	Final E (V)
STEPSIZE	QUANT	2.00000E+000	Step Size (mV)
TIMERRES	QUANT	3.33340E-005	&Timer Resolution
FREQUENCY	QUANT	1.00000E+001	Frequency (Hz)
PULSESIZE	QUANT	2.50000E+001	Pulse Size E (mV)
PULSEON	QUANT	1.00000E-001	Pulse &Time (s)
NOISEREJECT	TOGGLE	F	Noise Rejection
AREA	QUANT	2.00000E-002	Sample Area (cm^2)
IMODE	SELECTOR	1	I/E Range Mode
IRANGE	QUANT	1.00000E-003	Max Current (mA)
EQDELAY	IQUANT	10	Equil. Time (s)
IRCOMP	SELECTOR	0	IRComp
PFCOR	QUANT	5.00000E+001	PF Corr. (ohm)
CYCLES	IQUANT	101	C&ycles (#)
ELECTRODETYPE	SELECTOR	0	Electrode Type
STRIPPING	TOGGLE	F	Used for Stripping
POLARITY	TOGGLE	F	Signal Polarity
LINEFREQ	IQUANT	60	Line Frequency (Hz)
INTPERIOD	QUANT	3.3334E-005	Integration Period (s)
SEQUENCER	TOGGLE	TRUE	Run as Sequence
PSTATMODEL	IQUANT	4	Pstat Model
PSTATSECTION	LABEL	REF600-24079	Pstat Section
PSTATSERIALNO	LABEL	24079	Pstat Serial Number
CTRLMODE	IQUANT	1	Control Mode
ELECTROMETER	IQUANT	0	RE=0 or CS=1
IESTAB	IQUANT	2	I/E Stability
CASPEED	IQUANT	6	Control Amp Speed
CONVENTION	IQUANT	1	Current Convention
ICHRANGE	IQUANT	2	Ich Range
ICHRANGEMODE	TOGGLE	F	Ich Auto Range
ICHOFFSETENABLE	TOGGLE	F	Ich Offset Enable
ICHOFFSET	QUANT	0	Ich Offset (V)
ICHFILTER	IQUANT	2	Ich Filter
VCHRANGE	IQUANT	2	Vch Range
VCHRANGEMODE	TOGGLE	F	Vch Auto Range
VCHOFFSETENABLE	TOGGLE	F	Vch Offset Enable
VCHOFFSET	QUANT	0	Vch Offset (V)
VCHFILTER	IQUANT	2	Vch Filter
ACHRANGE	IQUANT	2	Ach Range
ACHOFFSETENABLE	TOGGLE	F	Ach Offset Enable
ACHOFFSET	QUANT	0	Ach Offset (V)
ACHFILTER	IQUANT	1	Ach Filter
IERANGELOWERLIMIT	IQUANT	1	I/E Range Lower Limit
IERANGEMODE	TOGGLE	F	I/E AutoRange
IERANGE	IQUANT	6	I/E Range
POSFEEDENABLE	TOGGLE	F	Positive Feedback IR Comp
POSFEEDRESISTANCE	QUANT	0	Positive Feedback Resistance (ohm)
ACHSELECT	IQUANT	0	Ach Select
SENSECABLEID	IQUANT	13	Sense Cable ID
PWRCABLEID	IQUANT	13	Power Cable ID
DCCALDATE	LABEL	6/30/2020	DC Calibration Date
ACCALDATE	LABEL	6/30/2020	AC Calibration Date
THERMOSELECT	IQUANT	1	Thermo Select
FRAMEWORKVERSION	LABEL	7.8.2	Framework Version
INSTRUMENTVERSION	LABEL	4.40	Instrument Version
CURVE	TABLE	101
	Pt	T	Vfwd	Vrev	Vstep	Ifwd	Irev	Idif	Sig	Ach	IERange	Over	Temp
	#	s	V	V	V	A	A	A	V	V	#	bits	deg C
	0	0.1	-3.25050E-001	-3.75011E-001	-3.50031E-001	-8.70086E-009	-3.79226E-008	2.92217E-008	-3.75000E-001	4.67206E-004	6	..........a	-327.68
	1	0.2	-3.22965E-001	-3.73044E-001	-3.48004E-001	3.43669E-009	-3.30696E-008	3.65063E-008	-3.73000E-001	4.57206E-004	6	..........a	-327.68
	2	0.3	-3.21067E-001	-3.70934E-001	-3.46001E-001	5.67931E-009	-3.16111E-008	3.72904E-008	-3.71000E-001	4.50206E-004	6	..........a	-327.68
	3	0.4	-3.19077E-001	-3.69125E-001	-3.44101E-001	6.82378E-009	-3.04180E-008	3.72417E-008	-3.69000E-001	4.68206E-004	6	..........a	-327.68
	4	0.5	-3.17094E-001	-3.67051E-001	-3.42072E-001	7.61022E-009	-2.96472E-008	3.72574E-008	-3.67000E-001	4.64373E-004	6	..........a	-327.68
	5	0.6	-3.14963E-001	-3.65064E-001	-3.40013E-001	8.35098E-009	-2.90684E-008	3.74194E-008	-3.65000E-001	4.51373E-004	6	..........a	-327.68
	6	0.7	-3.13107E-001	-3.62937E-001	-3.38022E-001	9.04307E-009	-2.86661E-008	3.77091E-008	-3.63000E-001	4.58706E-004	6	..........a	-327.68
	7	0.8	-3.11043E-001	-3.61088E-001	-3.36066E-001	9.47779E-009	-2.82760E-008	3.77538E-008	-3.61000E-001	4.59206E-004	6	..........a	-327.68
	8	0.9	-3.09071E-001	-3.59017E-001	-3.34044E-001	1.02959E-008	-2.79090E-008	3.82049E-008	-3.59000E-001	4.57873E-004	6	..........a	-327.68
	9	1	-3.06945E-001	-3.57097E-001	-3.32021E-001	1.06206E-008	-2.76616E-008	3.82822E-008	-3.57000E-001	4.52373E-004	6	..........a	-327.68
	10	1.1	-3.05103E-001	-3.54952E-001	-3.30027E-001	1.13754E-008	-2.73566E-008	3.87319E-008	-3.55000E-001	4.62539E-004	6	..........a	-327.68
	11	1.2	-3.03070E-001	-3.53092E-001	-3.28081E-001	1.19371E-008	-2.70445E-008	3.89816E-008	-3.53000E-001	4.65539E-004	6	..........a	-327.68
	12	1.3	-3.01103E-001	-3.50993E-001	-3.26048E-001	1.25455E-008	-2.70092E-008	3.95547E-008	-3.51000E-001	4.55539E-004	6	..........a	-327.68
	13	1.4	-2.98963E-001	-3.49056E-001	-3.24010E-001	1.32033E-008	-2.69338E-008	4.01371E-008	-3.49000E-001	4.56373E-004	6	..........a	-327.68
	14	1.5	-2.97081E-001	-3.46975E-001	-3.22028E-001	1.39757E-008	-2.69495E-008	4.09252E-008	-3.47000E-001	4.62873E-004	6	..........a	-327.68
	15	1.6	-2.95021E-001	-3.45127E-001	-3.20074E-001	1.45874E-008	-2.68392E-008	4.14266E-008	-3.45000E-001	4.53873E-004	6	..........a	-327.68
	16	1.7	-2.93006E-001	-3.43060E-001	-3.18033E-001	1.54539E-008	-2.67225E-008	4.21764E-008	-3.43000E-001	4.57706E-004	6	..........a	-327.68
	17	1.8	-2.90923E-001	-3.41074E-001	-3.15999E-001	1.62500E-008	-2.70212E-008	4.32712E-008	-3.41000E-001	4.70373E-004	6	..........a	-327.68
	18	1.9	-2.89104E-001	-3.38945E-001	-3.14025E-001	1.72874E-008	-2.71525E-008	4.44400E-008	-3.39000E-001	4.58373E-004	6	..........a	-327.68
	19	2	-2.87046E-001	-3.37093E-001	-3.12069E-001	1.81476E-008	-2.73412E-008	4.54888E-008	-3.37000E-001	4.62039E-004	6	..........a	-327.68
	20	2.1	-2.85108E-001	-3.35011E-001	-3.10059E-001	1.93114E-008	-2.76479E-008	4.69593E-008	-3.35000E-001	4.59206E-004	6	..........a	-327.68
	21	2.2	-2.82948E-001	-3.33081E-001	-3.08015E-001	2.05965E-008	-2.79063E-008	4.85028E-008	-3.33000E-001	4.57873E-004	6	..........a	-327.68
	22	2.3	-2.81122E-001	-3.30936E-001	-3.06029E-001	2.16820E-008	-2.85440E-008	5.02261E-008	-3.31000E-001	4.57539E-004	6	..........a	-327.68
	23	2.4	-2.79030E-001	-3.29087E-001	-3.04058E-001	2.31895E-008	-2.91208E-008	5.23103E-008	-3.29000E-001	4.63373E-004	6	..........a	-327.68
	24	2.5	-2.77100E-001	-3.26986E-001	-3.02043E-001	2.43510E-008	-2.96842E-008	5.40352E-008	-3.27000E-001	4.62373E-004	6	..........a	-327.68
	25	2.6	-2.74963E-001	-3.25044E-001	-3.00004E-001	2.60756E-008	-3.03199E-008	5.63955E-008	-3.25000E-001	4.65039E-004	6	..........a	-327.68
	26	2.7	-2.73074E-001	-3.22965E-001	-2.98019E-001	2.75718E-008	-3.08837E-008	5.84554E-008	-3.23000E-001	4.55706E-004	6	..........a	-327.68
	27	2.8	-2.71012E-001	-3.21024E-001	-2.96018E-001	2.91653E-008	-3.18205E-008	6.09858E-008	-3.21000E-001	4.62039E-004	6	..........a	-327.68
	28	2.9	-2.69061E-001	-3.19091E-001	-2.94076E-001	3.07582E-008	-3.27649E-008	6.35231E-008	-3.19000E-001	4.61539E-004	6	..........a	-327.68
	29	3	-2.66896E-001	-3.17064E-001	-2.91980E-001	3.24884E-008	-3.39444E-008	6.64328E-008	-3.17000E-001	4.67873E-004	6	..........a	-327.68
	30	3.1	-2.65124E-001	-3.14947E-001	-2.90035E-001	3.41056E-008	-3.50039E-008	6.91095E-008	-3.15000E-001	4.63039E-004	6	..........a	-327.68
	31	3.2	-2.63015E-001	-3.13099E-001	-2.88057E-001	3.57181E-008	-3.61837E-008	7.19018E-008	-3.13000E-001	4.70873E-004	6	..........a	-327.68
	32	3.3	-2.61097E-001	-3.11034E-001	-2.86065E-001	3.71890E-008	-3.72938E-008	7.44828E-008	-3.11000E-001	4.76039E-004	6	..........a	-327.68
	33	3.4	-2.58944E-001	-3.09059E-001	-2.84001E-001	3.85862E-008	-3.87130E-008	7.72992E-008	-3.09000E-001	4.67206E-004	6	..........a	-327.68
	34	3.5	-2.57091E-001	-3.06938E-001	-2.82014E-001	4.01610E-008	-4.01522E-008	8.03132E-008	-3.07000E-001	4.65039E-004	6	..........a	-327.68
	35	3.6	-2.55040E-001	-3.05110E-001	-2.80075E-001	4.13438E-008	-4.13807E-008	8.27245E-008	-3.05000E-001	4.60706E-004	6	..........a	-327.68
	36	3.7	-2.53105E-001	-3.03016E-001	-2.78060E-001	4.26000E-008	-4.30462E-008	8.56462E-008	-3.03000E-001	4.53873E-004	6	..........a	-327.68
	37	3.8	-2.50955E-001	-3.01072E-001	-2.76014E-001	4.34671E-008	-4.42991E-008	8.77662E-008	-3.01000E-001	4.60206E-004	6	..........a	-327.68
	38	3.9	-2.49087E-001	-2.98980E-001	-2.74033E-001	4.42775E-008	-4.59679E-008	9.02455E-008	-2.99000E-001	4.61206E-004	6	..........a	-327.68
	39	4	-2.46987E-001	-2.97047E-001	-2.72017E-001	4.50363E-008	-4.72148E-008	9.22511E-008	-2.97000E-001	4.55373E-004	6	..........a	-327.68
	40	4.1	-2.45052E-001	-2.94978E-001	-2.70015E-001	4.54790E-008	-4.86323E-008	9.41113E-008	-2.95000E-001	4.63873E-004	6	..........a	-327.68
	41	4.2	-2.42941E-001	-2.93095E-001	-2.68018E-001	4.57501E-008	-5.00261E-008	9.57762E-008	-2.93000E-001	4.62539E-004	6	..........a	-327.68
	42	4.3	-2.41124E-001	-2.90946E-001	-2.66035E-001	4.60451E-008	-5.10282E-008	9.70734E-008	-2.91000E-001	4.61206E-004	6	..........a	-327.68
	43	4.4	-2.39047E-001	-2.89089E-001	-2.64068E-001	4.60184E-008	-5.18267E-008	9.78451E-008	-2.89000E-001	4.65873E-004	6	..........a	-327.68
	44	4.5	-2.37083E-001	-2.86978E-001	-2.62031E-001	4.55480E-008	-5.27851E-008	9.83332E-008	-2.87000E-001	4.59206E-004	6	..........a	-327.68
	45	4.6	-2.34932E-001	-2.85068E-001	-2.60000E-001	4.52930E-008	-5.34509E-008	9.87439E-008	-2.85000E-001	4.63873E-004	6	..........a	-327.68
	46	4.7	-2.33094E-001	-2.82955E-001	-2.58025E-001	4.48089E-008	-5.39409E-008	9.87499E-008	-2.83000E-001	4.69373E-004	6	..........a	-327.68
	47	4.8	-2.31012E-001	-2.81105E-001	-2.56059E-001	4.44399E-008	-5.44040E-008	9.88439E-008	-2.81000E-001	4.59539E-004	6	..........a	-327.68
	48	4.9	-2.29097E-001	-2.78977E-001	-2.54037E-001	4.34524E-008	-5.44740E-008	9.79265E-008	-2.79000E-001	4.57706E-004	6	..........a	-327.68
	49	5	-2.26941E-001	-2.77062E-001	-2.52001E-001	4.23620E-008	-5.44900E-008	9.68520E-008	-2.77000E-001	4.70039E-004	6	..........a	-327.68
	50	5.1	-2.25090E-001	-2.74971E-001	-2.50031E-001	4.17032E-008	-5.43083E-008	9.60115E-008	-2.75000E-001	4.63706E-004	6	..........a	-327.68
	51	5.2	-2.22983E-001	-2.73042E-001	-2.48012E-001	4.05737E-008	-5.38543E-008	9.44280E-008	-2.73000E-001	4.65206E-004	6	..........a	-327.68
	52	5.3	-2.21061E-001	-2.70976E-001	-2.46018E-001	3.95890E-008	-5.32739E-008	9.28628E-008	-2.71000E-001	4.70706E-004	6	..........a	-327.68
	53	5.4	-2.18979E-001	-2.69024E-001	-2.44001E-001	3.84488E-008	-5.24534E-008	9.09022E-008	-2.69000E-001	4.62539E-004	6	..........a	-327.68
	54	5.5	-2.17131E-001	-2.66902E-001	-2.42016E-001	3.72990E-008	-5.14346E-008	8.87336E-008	-2.67000E-001	4.54873E-004	6	..........a	-327.68
	55	5.6	-2.15030E-001	-2.65121E-001	-2.40076E-001	3.60662E-008	-5.05228E-008	8.65890E-008	-2.65000E-001	4.56206E-004	6	..........a	-327.68
	56	5.7	-2.13089E-001	-2.62973E-001	-2.38031E-001	3.49854E-008	-4.91933E-008	8.41787E-008	-2.63000E-001	4.62539E-004	6	..........a	-327.68
	57	5.8	-2.10925E-001	-2.61085E-001	-2.36005E-001	3.39952E-008	-4.76952E-008	8.16904E-008	-2.61000E-001	4.61206E-004	6	..........a	-327.68
	58	5.9	-2.09099E-001	-2.58947E-001	-2.34023E-001	3.29458E-008	-4.60613E-008	7.90071E-008	-2.59000E-001	4.55873E-004	6	..........a	-327.68
	59	6	-2.07022E-001	-2.57088E-001	-2.32055E-001	3.17953E-008	-4.47148E-008	7.65101E-008	-2.57000E-001	4.73706E-004	6	..........a	-327.68
	60	6.1	-2.05102E-001	-2.55006E-001	-2.30054E-001	3.07535E-008	-4.30776E-008	7.38311E-008	-2.55000E-001	4.64873E-004	6	..........a	-327.68
	61	6.2	-2.02943E-001	-2.53097E-001	-2.28020E-001	2.97240E-008	-4.13573E-008	7.10814E-008	-2.53000E-001	4.65373E-004	6	..........a	-327.68
	62	6.3	-2.01103E-001	-2.50940E-001	-2.26021E-001	2.87302E-008	-3.94711E-008	6.82013E-008	-2.51000E-001	4.69039E-004	6	..........a	-327.68
	63	6.4	-1.99029E-001	-2.49080E-001	-2.24054E-001	2.76641E-008	-3.78046E-008	6.54687E-008	-2.49000E-001	4.65873E-004	6	..........a	-327.68
	64	6.5	-1.97084E-001	-2.46995E-001	-2.22039E-001	2.67827E-008	-3.60187E-008	6.28013E-008	-2.47000E-001	4.79206E-004	6	..........a	-327.68
	65	6.6	-1.94978E-001	-2.45033E-001	-2.20006E-001	2.61342E-008	-3.45918E-008	6.07261E-008	-2.45000E-001	4.70373E-004	6	..........a	-327.68
	66	6.7	-1.93059E-001	-2.42920E-001	-2.17989E-001	2.52668E-008	-3.30123E-008	5.82791E-008	-2.43000E-001	4.67039E-004	6	..........a	-327.68
	67	6.8	-1.91061E-001	-2.41122E-001	-2.16091E-001	2.47081E-008	-3.14031E-008	5.61111E-008	-2.41000E-001	4.64039E-004	6	..........a	-327.68
	68	6.9	-1.89086E-001	-2.39041E-001	-2.14064E-001	2.37863E-008	-2.97045E-008	5.34908E-008	-2.39000E-001	4.67539E-004	6	..........a	-327.68
	69	7	-1.86942E-001	-2.37041E-001	-2.11992E-001	2.33342E-008	-2.84600E-008	5.17943E-008	-2.37000E-001	4.71873E-004	6	..........a	-327.68
	70	7.1	-1.85113E-001	-2.34934E-001	-2.10024E-001	2.27148E-008	-2.72049E-008	4.99197E-008	-2.35000E-001	4.73039E-004	6	..........a	-327.68
	71	7.2	-1.83035E-001	-2.33091E-001	-2.08063E-001	2.20697E-008	-2.57350E-008	4.78047E-008	-2.33000E-001	4.65873E-004	6	..........a	-327.68
	72	7.3	-1.81092E-001	-2.31010E-001	-2.06051E-001	2.16420E-008	-2.46386E-008	4.62806E-008	-2.31000E-001	4.66539E-004	6	..........a	-327.68
	73	7.4	-1.78940E-001	-2.29105E-001	-2.04023E-001	2.12166E-008	-2.34821E-008	4.46987E-008	-2.29000E-001	4.66706E-004	6	..........a	-327.68
	74	7.5	-1.77103E-001	-2.26954E-001	-2.02028E-001	2.06992E-008	-2.24286E-008	4.31278E-008	-2.27000E-001	4.61039E-004	6	..........a	-327.68
	75	7.6	-1.75055E-001	-2.25084E-001	-2.00070E-001	2.03438E-008	-2.16078E-008	4.19517E-008	-2.25000E-001	4.68706E-004	6	..........a	-327.68
	76	7.7	-1.73101E-001	-2.22993E-001	-1.98047E-001	2.01121E-008	-2.07797E-008	4.08919E-008	-2.23000E-001	4.59873E-004	6	..........a	-327.68
	77	7.8	-1.70956E-001	-2.21054E-001	-1.96005E-001	1.96237E-008	-1.98703E-008	3.94940E-008	-2.21000E-001	4.64206E-004	6	..........a	-327.68
	78	7.9	-1.69077E-001	-2.18975E-001	-1.94026E-001	1.95254E-008	-1.90952E-008	3.86206E-008	-2.19000E-001	4.72539E-004	6	..........a	-327.68
	79	8	-1.66981E-001	-2.17130E-001	-1.92055E-001	1.92394E-008	-1.84348E-008	3.76741E-008	-2.17000E-001	4.67373E-004	6	..........a	-327.68
	80	8.1	-1.65024E-001	-2.15016E-001	-1.90020E-001	1.89760E-008	-1.79147E-008	3.68907E-008	-2.15000E-001	4.70206E-004	6	..........a	-327.68
	81	8.2	-1.62909E-001	-2.13067E-001	-1.87988E-001	1.88173E-008	-1.74056E-008	3.62229E-008	-2.13000E-001	4.62706E-004	6	..........a	-327.68
	82	8.3	-1.61086E-001	-2.10940E-001	-1.86013E-001	1.86283E-008	-1.66729E-008	3.53012E-008	-2.11000E-001	4.70039E-004	6	..........a	-327.68
	83	8.4	-1.59022E-001	-2.09098E-001	-1.84060E-001	1.85109E-008	-1.62562E-008	3.47671E-008	-2.09000E-001	4.79539E-004	6	..........a	-327.68
	84	8.5	-1.57099E-001	-2.07014E-001	-1.82057E-001	1.84973E-008	-1.59118E-008	3.44090E-008	-2.07000E-001	4.59706E-004	6	..........a	-327.68
	85	8.6	-1.54942E-001	-2.05075E-001	-1.80008E-001	1.82982E-008	-1.55757E-008	3.38740E-008	-2.05000E-001	4.67873E-004	6	..........a	-327.68
	86	8.7	-1.53121E-001	-2.02932E-001	-1.78027E-001	1.82302E-008	-1.51413E-008	3.33716E-008	-2.03000E-001	4.60373E-004	6	..........a	-327.68
	87	8.8	-1.51038E-001	-2.01103E-001	-1.76071E-001	1.81606E-008	-1.50033E-008	3.31639E-008	-2.01000E-001	4.69873E-004	6	..........a	-327.68
	88	8.9	-1.49099E-001	-1.99016E-001	-1.74058E-001	1.81369E-008	-1.46579E-008	3.27948E-008	-1.99000E-001	4.65706E-004	6	..........a	-327.68
	89	9	-1.46961E-001	-1.97082E-001	-1.72021E-001	1.80472E-008	-1.42912E-008	3.23384E-008	-1.97000E-001	4.71373E-004	6	..........a	-327.68
	90	9.1	-1.45064E-001	-1.94962E-001	-1.70013E-001	1.79335E-008	-1.41315E-008	3.20651E-008	-1.95000E-001	4.67873E-004	6	..........a	-327.68
	91	9.2	-1.43014E-001	-1.93052E-001	-1.68033E-001	1.79642E-008	-1.37872E-008	3.17514E-008	-1.93000E-001	4.70539E-004	6	..........a	-327.68
	92	9.3	-1.41051E-001	-1.91050E-001	-1.66051E-001	1.78579E-008	-1.36368E-008	3.14947E-008	-1.91000E-001	4.76039E-004	6	..........a	-327.68
	93	9.4	-1.38887E-001	-1.89081E-001	-1.63984E-001	1.79489E-008	-1.35368E-008	3.14857E-008	-1.89000E-001	4.73873E-004	6	..........a	-327.68
	94	9.5	-1.37120E-001	-1.86921E-001	-1.62020E-001	1.79709E-008	-1.31484E-008	3.11193E-008	-1.87000E-001	4.81039E-004	6	..........a	-327.68
	95	9.6	-1.35010E-001	-1.85098E-001	-1.60054E-001	1.80362E-008	-1.31188E-008	3.11550E-008	-1.85000E-001	4.63373E-004	6	..........a	-327.68
	96	9.7	-1.33081E-001	-1.83027E-001	-1.58054E-001	1.78682E-008	-1.30071E-008	3.08753E-008	-1.83000E-001	4.67039E-004	6	..........a	-327.68
	97	9.8	-1.30932E-001	-1.81059E-001	-1.55996E-001	1.80049E-008	-1.27917E-008	3.07966E-008	-1.81000E-001	4.62706E-004	6	..........a	-327.68
	98	9.9	-1.29096E-001	-1.78931E-001	-1.54013E-001	1.79019E-008	-1.26660E-008	3.05679E-008	-1.79000E-001	4.58206E-004	6	..........a	-327.68
	99	10	-1.27061E-001	-1.77109E-001	-1.52085E-001	1.78529E-008	-1.27324E-008	3.05852E-008	-1.77000E-001	4.64873E-004	6	..........a	-327.68
	100	10.1	-1.25101E-001	-1.75031E-001	-1.50066E-001	1.79075E-008	-1.23787E-008	3.02862E-008	-1.75000E-001	4.70873E-004	6	..........a	-327.68
