EXPLAIN
TAG	SQUARE_WAVE
TITLE	LABEL	Square Wave Voltammetry	Test Identifier
DATE	LABEL	8/25/2020	Date
TIME	LABEL	14:55:02	Time
NOTES	NOTES	1	Notes...
	
PSTAT	PSTAT	REF600-24079	Potentiostat
VINIT	QUANT	-3.50000E-001	Initial E (V)
VFINAL	QUANT	-1.50000E-001	Final E (V)
STEPSIZE	QUANT	2.00000E+000	Step Size (mV)
TIMERRES	QUANT	3.33340E-005	&Timer Resolution
FREQUENCY	QUANT	2.50000E+002	Frequency (Hz)
PULSESIZE	QUANT	2.50000E+001	Pulse Size E (mV)
PULSEON	QUANT	4.00000E-003	Pulse &Time (s)
NOISEREJECT	TOGGLE	F	Noise Rejection
AREA	QUANT	2.00000E-002	Sample Area (cm^2)
IMODE	SELECTOR	1	I/E Range Mode
IRANGE	QUANT	1.00000E-002	Max Current (mA)
EQDELAY	IQUANT	10	Equil. Time (s)
IRCOMP	SELECTOR	0	IRComp
PFCOR	QUANT	5.00000E+001	PF Corr. (ohm)
CYCLES	IQUANT	101	C&ycles (#)
ELECTRODETYPE	SELECTOR	0	Electrode Type
STRIPPING	TOGGLE	F	Used for Stripping
POLARITY	TOGGLE	F	Signal Polarity
LINEFREQ	IQUANT	60	Line Frequency (Hz)
INTPERIOD	QUANT	3.3334E-005	Integration Period (s)
SEQUENCER	TOGGLE	TRUE	Run as Sequence
PSTATMODEL	IQUANT	4	Pstat Model
PSTATSECTION	LABEL	REF600-24079	Pstat Section
PSTATSERIALNO	LABEL	24079	Pstat Serial Number
CTRLMODE	IQUANT	1	Control Mode
ELECTROMETER	IQUANT	0	RE=0 or CS=1
IESTAB	IQUANT	2	I/E Stability
CASPEED	IQUANT	6	Control Amp Speed
CONVENTION	IQUANT	1	Current Convention
ICHRANGE	IQUANT	2	Ich Range
ICHRANGEMODE	TOGGLE	F	Ich Auto Range
ICHOFFSETENABLE	TOGGLE	F	Ich Offset Enable
ICHOFFSET	QUANT	0	Ich Offset (V)
ICHFILTER	IQUANT	2	Ich Filter
VCHRANGE	IQUANT	2	Vch Range
VCHRANGEMODE	TOGGLE	F	Vch Auto Range
VCHOFFSETENABLE	TOGGLE	F	Vch Offset Enable
VCHOFFSET	QUANT	0	Vch Offset (V)
VCHFILTER	IQUANT	1	Vch Filter
ACHRANGE	IQUANT	2	Ach Range
ACHOFFSETENABLE	TOGGLE	F	Ach Offset Enable
ACHOFFSET	QUANT	0	Ach Offset (V)
ACHFILTER	IQUANT	1	Ach Filter
IERANGELOWERLIMIT	IQUANT	1	I/E Range Lower Limit
IERANGEMODE	TOGGLE	F	I/E AutoRange
IERANGE	IQUANT	7	I/E Range
POSFEEDENABLE	TOGGLE	F	Positive Feedback IR Comp
POSFEEDRESISTANCE	QUANT	0	Positive Feedback Resistance (ohm)
ACHSELECT	IQUANT	0	Ach Select
SENSECABLEID	IQUANT	13	Sense Cable ID
PWRCABLEID	IQUANT	13	Power Cable ID
DCCALDATE	LABEL	6/30/2020	DC Calibration Date
ACCALDATE	LABEL	6/30/2020	AC Calibration Date
THERMOSELECT	IQUANT	1	Thermo Select
FRAMEWORKVERSION	LABEL	7.8.2	Framework Version
INSTRUMENTVERSION	LABEL	4.40	Instrument Version
CURVE	TABLE	101
	Pt	T	Vfwd	Vrev	Vstep	Ifwd	Irev	Idif	Sig	Ach	IERange	Over	Temp
	#	s	V	V	V	A	A	A	V	V	#	bits	deg C
	0	0.004	-3.23624E-001	-3.80828E-001	-3.52226E-001	4.55683E-008	-4.64265E-006	4.68822E-006	-3.75000E-001	3.70206E-004	7	..........a	-327.68
	1	0.008	-3.13253E-001	-3.79887E-001	-3.46570E-001	5.07400E-006	-5.20873E-006	1.02827E-005	-3.73000E-001	3.57706E-004	7	..........a	-327.68
	2	0.012	-3.11066E-001	-3.77899E-001	-3.44483E-001	5.20827E-006	-5.19181E-006	1.04001E-005	-3.71000E-001	4.24373E-004	7	..........a	-327.68
	3	0.016	-3.09041E-001	-3.75841E-001	-3.42441E-001	5.21977E-006	-5.17006E-006	1.03898E-005	-3.69000E-001	4.07706E-004	7	..........a	-327.68
	4	0.02	-3.07049E-001	-3.73874E-001	-3.40462E-001	5.23803E-006	-5.16056E-006	1.03986E-005	-3.67000E-001	4.07706E-004	7	..........a	-327.68
	5	0.024	-3.05066E-001	-3.71862E-001	-3.38464E-001	5.23611E-006	-5.15406E-006	1.03902E-005	-3.65000E-001	3.86873E-004	7	..........a	-327.68
	6	0.028	-3.03091E-001	-3.69833E-001	-3.36462E-001	5.24778E-006	-5.14589E-006	1.03937E-005	-3.63000E-001	3.82706E-004	7	..........a	-327.68
	7	0.032	-3.01095E-001	-3.67795E-001	-3.34445E-001	5.25469E-006	-5.14222E-006	1.03969E-005	-3.61000E-001	3.95206E-004	7	..........a	-327.68
	8	0.036	-2.99195E-001	-3.65866E-001	-3.32530E-001	5.25828E-006	-5.13605E-006	1.03943E-005	-3.59000E-001	3.86873E-004	7	..........a	-327.68
	9	0.04	-2.97141E-001	-3.63787E-001	-3.30464E-001	5.26470E-006	-5.13956E-006	1.04043E-005	-3.57000E-001	3.66039E-004	7	..........a	-327.68
	10	0.044	-2.95145E-001	-3.61849E-001	-3.28497E-001	5.26920E-006	-5.13747E-006	1.04067E-005	-3.55000E-001	4.45206E-004	7	..........a	-327.68
	11	0.048	-2.92983E-001	-3.59816E-001	-3.26399E-001	5.27695E-006	-5.13939E-006	1.04163E-005	-3.53000E-001	3.82706E-004	7	..........a	-327.68
	12	0.052	-2.91070E-001	-3.57891E-001	-3.24480E-001	5.28262E-006	-5.14322E-006	1.04258E-005	-3.51000E-001	3.66039E-004	7	..........a	-327.68
	13	0.056	-2.89174E-001	-3.55816E-001	-3.22495E-001	5.29845E-006	-5.14731E-006	1.04458E-005	-3.49000E-001	3.61873E-004	7	..........a	-327.68
	14	0.06	-2.87166E-001	-3.53837E-001	-3.20501E-001	5.30145E-006	-5.14897E-006	1.04504E-005	-3.47000E-001	3.95206E-004	7	..........a	-327.68
	15	0.064	-2.85183E-001	-3.51803E-001	-3.18493E-001	5.32479E-006	-5.15122E-006	1.04760E-005	-3.45000E-001	4.24373E-004	7	..........a	-327.68
	16	0.068	-2.83124E-001	-3.49841E-001	-3.16483E-001	5.32929E-006	-5.16322E-006	1.04925E-005	-3.43000E-001	4.32706E-004	7	..........a	-327.68
	17	0.072	-2.81233E-001	-3.47828E-001	-3.14530E-001	5.34187E-006	-5.16497E-006	1.05068E-005	-3.41000E-001	3.53539E-004	7	..........a	-327.68
	18	0.076	-2.79233E-001	-3.45862E-001	-3.12547E-001	5.35471E-006	-5.17731E-006	1.05320E-005	-3.39000E-001	4.11873E-004	7	..........a	-327.68
	19	0.08	-2.77316E-001	-3.43712E-001	-3.10514E-001	5.37021E-006	-5.18414E-006	1.05544E-005	-3.37000E-001	4.11873E-004	7	..........a	-327.68
	20	0.084	-2.75270E-001	-3.41841E-001	-3.08555E-001	5.39346E-006	-5.20156E-006	1.05950E-005	-3.35000E-001	4.32706E-004	7	..........a	-327.68
	21	0.088	-2.73287E-001	-3.39808E-001	-3.06547E-001	5.40555E-006	-5.20665E-006	1.06122E-005	-3.33000E-001	4.03539E-004	7	..........a	-327.68
	22	0.092	-2.71349E-001	-3.37762E-001	-3.04555E-001	5.42847E-006	-5.21790E-006	1.06464E-005	-3.31000E-001	3.78539E-004	7	..........a	-327.68
	23	0.096	-2.69337E-001	-3.35695E-001	-3.02516E-001	5.44414E-006	-5.23398E-006	1.06781E-005	-3.29000E-001	3.78539E-004	7	..........a	-327.68
	24	0.1	-2.67245E-001	-3.33816E-001	-3.00530E-001	5.47239E-006	-5.24957E-006	1.07220E-005	-3.27000E-001	4.36873E-004	7	..........a	-327.68
	25	0.104	-2.65428E-001	-3.31803E-001	-2.98616E-001	5.49789E-006	-5.26866E-006	1.07666E-005	-3.25000E-001	3.74373E-004	7	..........a	-327.68
	26	0.108	-2.63391E-001	-3.29824E-001	-2.96608E-001	5.51956E-006	-5.28557E-006	1.08051E-005	-3.23000E-001	3.49373E-004	7	..........a	-327.68
	27	0.112	-2.61424E-001	-3.27724E-001	-2.94574E-001	5.54815E-006	-5.30524E-006	1.08534E-005	-3.21000E-001	3.82706E-004	7	..........a	-327.68
	28	0.116	-2.59424E-001	-3.25724E-001	-2.92574E-001	5.57440E-006	-5.32633E-006	1.09007E-005	-3.19000E-001	3.78539E-004	7	..........a	-327.68
	29	0.12	-2.57441E-001	-3.23757E-001	-2.90599E-001	5.61041E-006	-5.34833E-006	1.09587E-005	-3.17000E-001	4.07706E-004	7	..........a	-327.68
	30	0.124	-2.55466E-001	-3.21720E-001	-2.88593E-001	5.63225E-006	-5.36409E-006	1.09963E-005	-3.15000E-001	3.49373E-004	7	..........a	-327.68
	31	0.128	-2.53516E-001	-3.19645E-001	-2.86580E-001	5.66883E-006	-5.38726E-006	1.10561E-005	-3.13000E-001	3.74373E-004	7	..........a	-327.68
	32	0.132	-2.51495E-001	-3.17708E-001	-2.84601E-001	5.69742E-006	-5.41009E-006	1.11075E-005	-3.11000E-001	3.86873E-004	7	..........a	-327.68
	33	0.136	-2.49583E-001	-3.15662E-001	-2.82622E-001	5.73618E-006	-5.43468E-006	1.11709E-005	-3.09000E-001	3.91039E-004	7	..........a	-327.68
	34	0.14	-2.47608E-001	-3.13628E-001	-2.80618E-001	5.77335E-006	-5.45760E-006	1.12309E-005	-3.07000E-001	3.61873E-004	7	..........a	-327.68
	35	0.144	-2.45616E-001	-3.11583E-001	-2.78599E-001	5.79685E-006	-5.47493E-006	1.12718E-005	-3.05000E-001	3.74373E-004	7	..........a	-327.68
	36	0.148	-2.43683E-001	-3.09616E-001	-2.76649E-001	5.83111E-006	-5.49794E-006	1.13290E-005	-3.03000E-001	3.95206E-004	7	..........a	-327.68
	37	0.152	-2.41628E-001	-3.07578E-001	-2.74603E-001	5.86611E-006	-5.52361E-006	1.13897E-005	-3.01000E-001	4.03539E-004	7	..........a	-327.68
	38	0.156	-2.39666E-001	-3.05616E-001	-2.72641E-001	5.90478E-006	-5.54461E-006	1.14494E-005	-2.99000E-001	3.57706E-004	7	..........a	-327.68
	39	0.16	-2.37708E-001	-3.03562E-001	-2.70635E-001	5.92262E-006	-5.56195E-006	1.14846E-005	-2.97000E-001	3.95206E-004	7	..........a	-327.68
	40	0.164	-2.35703E-001	-3.01520E-001	-2.68612E-001	5.95937E-006	-5.57936E-006	1.15387E-005	-2.95000E-001	3.82706E-004	7	..........a	-327.68
	41	0.168	-2.33683E-001	-2.99549E-001	-2.66616E-001	5.98738E-006	-5.59887E-006	1.15862E-005	-2.93000E-001	3.91039E-004	7	..........a	-327.68
	42	0.172	-2.31824E-001	-2.97499E-001	-2.64662E-001	6.01838E-006	-5.61520E-006	1.16336E-005	-2.91000E-001	3.78539E-004	7	..........a	-327.68
	43	0.176	-2.29799E-001	-2.95512E-001	-2.62655E-001	6.03247E-006	-5.62470E-006	1.16572E-005	-2.89000E-001	3.99373E-004	7	..........a	-327.68
	44	0.18	-2.27816E-001	-2.93562E-001	-2.60689E-001	6.04989E-006	-5.63237E-006	1.16823E-005	-2.87000E-001	4.07706E-004	7	..........a	-327.68
	45	0.184	-2.25791E-001	-2.91462E-001	-2.58626E-001	6.07256E-006	-5.64679E-006	1.17193E-005	-2.85000E-001	3.74373E-004	7	..........a	-327.68
	46	0.188	-2.23858E-001	-2.89437E-001	-2.56647E-001	6.08389E-006	-5.65171E-006	1.17356E-005	-2.83000E-001	4.24373E-004	7	..........a	-327.68
	47	0.192	-2.21816E-001	-2.87424E-001	-2.54620E-001	6.09664E-006	-5.65246E-006	1.17491E-005	-2.81000E-001	3.91039E-004	7	..........a	-327.68
	48	0.196	-2.19841E-001	-2.85383E-001	-2.52612E-001	6.09689E-006	-5.64662E-006	1.17435E-005	-2.79000E-001	3.78539E-004	7	..........a	-327.68
	49	0.2	-2.17770E-001	-2.83399E-001	-2.50585E-001	6.10881E-006	-5.64312E-006	1.17519E-005	-2.77000E-001	4.11873E-004	7	..........a	-327.68
	50	0.204	-2.15841E-001	-2.81395E-001	-2.48618E-001	6.10006E-006	-5.64129E-006	1.17414E-005	-2.75000E-001	3.74373E-004	7	..........a	-327.68
	51	0.208	-2.13824E-001	-2.79399E-001	-2.46612E-001	6.09214E-006	-5.62729E-006	1.17194E-005	-2.73000E-001	3.78539E-004	7	..........a	-327.68
	52	0.212	-2.11841E-001	-2.77399E-001	-2.44620E-001	6.07822E-006	-5.61437E-006	1.16926E-005	-2.71000E-001	3.70206E-004	7	..........a	-327.68
	53	0.216	-2.09720E-001	-2.75353E-001	-2.42537E-001	6.06556E-006	-5.60070E-006	1.16663E-005	-2.69000E-001	4.07706E-004	7	..........a	-327.68
	54	0.22	-2.07783E-001	-2.73316E-001	-2.40549E-001	6.04755E-006	-5.58253E-006	1.16301E-005	-2.67000E-001	3.86873E-004	7	..........a	-327.68
	55	0.224	-2.05791E-001	-2.71366E-001	-2.38578E-001	6.02322E-006	-5.55936E-006	1.15826E-005	-2.65000E-001	4.20206E-004	7	..........a	-327.68
	56	0.228	-2.03783E-001	-2.69370E-001	-2.36576E-001	6.00138E-006	-5.53194E-006	1.15333E-005	-2.63000E-001	4.11873E-004	7	..........a	-327.68
	57	0.232	-2.01749E-001	-2.67258E-001	-2.34503E-001	5.96537E-006	-5.51086E-006	1.14762E-005	-2.61000E-001	4.03539E-004	7	..........a	-327.68
	58	0.236	-1.99778E-001	-2.65291E-001	-2.32535E-001	5.94087E-006	-5.47910E-006	1.14200E-005	-2.59000E-001	3.82706E-004	7	..........a	-327.68
	59	0.24	-1.97678E-001	-2.63341E-001	-2.30510E-001	5.90237E-006	-5.44910E-006	1.13515E-005	-2.57000E-001	3.78539E-004	7	..........a	-327.68
	60	0.244	-1.95716E-001	-2.61312E-001	-2.28514E-001	5.86453E-006	-5.41259E-006	1.12771E-005	-2.55000E-001	3.78539E-004	7	..........a	-327.68
	61	0.248	-1.93641E-001	-2.59349E-001	-2.26495E-001	5.82252E-006	-5.38342E-006	1.12059E-005	-2.53000E-001	3.70206E-004	7	..........a	-327.68
	62	0.252	-1.91703E-001	-2.57303E-001	-2.24503E-001	5.77843E-006	-5.34817E-006	1.11266E-005	-2.51000E-001	3.91039E-004	7	..........a	-327.68
	63	0.256	-1.89666E-001	-2.55395E-001	-2.22530E-001	5.73668E-006	-5.31183E-006	1.10485E-005	-2.49000E-001	4.20206E-004	7	..........a	-327.68
	64	0.26	-1.87578E-001	-2.53370E-001	-2.20474E-001	5.68467E-006	-5.27199E-006	1.09567E-005	-2.47000E-001	3.49373E-004	7	..........a	-327.68
	65	0.264	-1.85558E-001	-2.51391E-001	-2.18474E-001	5.64758E-006	-5.23223E-006	1.08798E-005	-2.45000E-001	4.07706E-004	7	..........a	-327.68
	66	0.268	-1.83612E-001	-2.49362E-001	-2.16487E-001	5.59466E-006	-5.19356E-006	1.07882E-005	-2.43000E-001	4.03539E-004	7	..........a	-327.68
	67	0.272	-1.81578E-001	-2.47420E-001	-2.14499E-001	5.55024E-006	-5.15489E-006	1.07051E-005	-2.41000E-001	3.61873E-004	7	..........a	-327.68
	68	0.276	-1.79474E-001	-2.45378E-001	-2.12426E-001	5.50406E-006	-5.11814E-006	1.06222E-005	-2.39000E-001	4.16039E-004	7	..........a	-327.68
	69	0.28	-1.77491E-001	-2.43399E-001	-2.10445E-001	5.45706E-006	-5.07930E-006	1.05364E-005	-2.37000E-001	3.99373E-004	7	..........a	-327.68
	70	0.284	-1.75474E-001	-2.41320E-001	-2.08397E-001	5.41063E-006	-5.04521E-006	1.04558E-005	-2.35000E-001	3.91039E-004	7	..........a	-327.68
	71	0.288	-1.73491E-001	-2.39458E-001	-2.06474E-001	5.36146E-006	-5.00820E-006	1.03697E-005	-2.33000E-001	3.74373E-004	7	..........a	-327.68
	72	0.292	-1.71433E-001	-2.37366E-001	-2.04399E-001	5.31545E-006	-4.97087E-006	1.02863E-005	-2.31000E-001	4.07706E-004	7	..........a	-327.68
	73	0.296	-1.69516E-001	-2.35358E-001	-2.02437E-001	5.27020E-006	-4.93369E-006	1.02039E-005	-2.29000E-001	4.11873E-004	7	..........a	-327.68
	74	0.3	-1.67483E-001	-2.33345E-001	-2.00414E-001	5.23578E-006	-4.90002E-006	1.01358E-005	-2.27000E-001	3.78539E-004	7	..........a	-327.68
	75	0.304	-1.65453E-001	-2.31428E-001	-1.98441E-001	5.18560E-006	-4.86568E-006	1.00513E-005	-2.25000E-001	4.03539E-004	7	..........a	-327.68
	76	0.308	-1.63358E-001	-2.29424E-001	-1.96391E-001	5.14826E-006	-4.83010E-006	9.97836E-006	-2.23000E-001	3.53539E-004	7	..........a	-327.68
	77	0.312	-1.61416E-001	-2.27453E-001	-1.94435E-001	5.10859E-006	-4.80001E-006	9.90860E-006	-2.21000E-001	3.70206E-004	7	..........a	-327.68
	78	0.316	-1.59391E-001	-2.25366E-001	-1.92378E-001	5.07025E-006	-4.76842E-006	9.83867E-006	-2.19000E-001	3.99373E-004	7	..........a	-327.68
	79	0.32	-1.57441E-001	-2.23453E-001	-1.90447E-001	5.03283E-006	-4.73925E-006	9.77208E-006	-2.17000E-001	3.86873E-004	7	..........a	-327.68
	80	0.324	-1.55353E-001	-2.21416E-001	-1.88385E-001	4.99374E-006	-4.71550E-006	9.70924E-006	-2.15000E-001	3.49373E-004	7	..........a	-327.68
	81	0.328	-1.53399E-001	-2.19470E-001	-1.86435E-001	4.97057E-006	-4.68416E-006	9.65473E-006	-2.13000E-001	3.74373E-004	7	..........a	-327.68
	82	0.332	-1.51378E-001	-2.17453E-001	-1.84416E-001	4.93123E-006	-4.65824E-006	9.58947E-006	-2.11000E-001	3.91039E-004	7	..........a	-327.68
	83	0.336	-1.49395E-001	-2.15478E-001	-1.82437E-001	4.90898E-006	-4.63207E-006	9.54105E-006	-2.09000E-001	3.95206E-004	7	..........a	-327.68
	84	0.34	-1.47349E-001	-2.13433E-001	-1.80391E-001	4.87439E-006	-4.61123E-006	9.48563E-006	-2.07000E-001	4.07706E-004	7	..........a	-327.68
	85	0.344	-1.45383E-001	-2.11487E-001	-1.78435E-001	4.84881E-006	-4.58665E-006	9.43545E-006	-2.05000E-001	3.91039E-004	7	..........a	-327.68
	86	0.348	-1.43399E-001	-2.09424E-001	-1.76412E-001	4.82264E-006	-4.56214E-006	9.38478E-006	-2.03000E-001	4.11873E-004	7	..........a	-327.68
	87	0.352	-1.41353E-001	-2.07495E-001	-1.74424E-001	4.79497E-006	-4.53914E-006	9.33411E-006	-2.01000E-001	3.78539E-004	7	..........a	-327.68
	88	0.356	-1.39291E-001	-2.05478E-001	-1.72385E-001	4.77238E-006	-4.52314E-006	9.29552E-006	-1.99000E-001	4.07706E-004	7	..........a	-327.68
	89	0.36	-1.37362E-001	-2.03508E-001	-1.70435E-001	4.74871E-006	-4.50864E-006	9.25734E-006	-1.97000E-001	3.78539E-004	7	..........a	-327.68
	90	0.364	-1.35378E-001	-2.01458E-001	-1.68418E-001	4.73612E-006	-4.48747E-006	9.22359E-006	-1.95000E-001	4.20206E-004	7	..........a	-327.68
	91	0.368	-1.33362E-001	-1.99524E-001	-1.66443E-001	4.70912E-006	-4.46863E-006	9.17775E-006	-1.93000E-001	3.78539E-004	7	..........a	-327.68
	92	0.372	-1.31308E-001	-1.97524E-001	-1.64416E-001	4.69362E-006	-4.45363E-006	9.14725E-006	-1.91000E-001	3.95206E-004	7	..........a	-327.68
	93	0.376	-1.29370E-001	-1.95478E-001	-1.62424E-001	4.67762E-006	-4.44013E-006	9.11774E-006	-1.89000E-001	4.28539E-004	7	..........a	-327.68
	94	0.38	-1.27378E-001	-1.93524E-001	-1.60451E-001	4.66295E-006	-4.42279E-006	9.08574E-006	-1.87000E-001	3.66039E-004	7	..........a	-327.68
	95	0.384	-1.25391E-001	-1.91549E-001	-1.58470E-001	4.64569E-006	-4.41321E-006	9.05890E-006	-1.85000E-001	3.57706E-004	7	..........a	-327.68
	96	0.388	-1.23312E-001	-1.89537E-001	-1.56424E-001	4.62978E-006	-4.39754E-006	9.02731E-006	-1.83000E-001	4.11873E-004	7	..........a	-327.68
	97	0.392	-1.21349E-001	-1.87558E-001	-1.54453E-001	4.61794E-006	-4.39079E-006	9.00873E-006	-1.81000E-001	3.82706E-004	7	..........a	-327.68
	98	0.396	-1.19362E-001	-1.85516E-001	-1.52439E-001	4.60894E-006	-4.37812E-006	8.98706E-006	-1.79000E-001	4.03539E-004	7	..........a	-327.68
	99	0.4	-1.17349E-001	-1.83499E-001	-1.50424E-001	4.59969E-006	-4.36578E-006	8.96547E-006	-1.77000E-001	4.03539E-004	7	..........a	-327.68
	100	0.404	-1.15358E-001	-1.81491E-001	-1.48424E-001	4.58327E-006	-4.35536E-006	8.93863E-006	-1.75000E-001	3.86873E-004	7	..........a	-327.68
