EXPLAIN
TAG	SQUARE_WAVE
TITLE	LABEL	Square Wave Voltammetry	Test Identifier
DATE	LABEL	8/25/2020	Date
TIME	LABEL	13:21:26	Time
NOTES	NOTES	1	Notes...
	
PSTAT	PSTAT	REF600-24079	Potentiostat
VINIT	QUANT	-3.50000E-001	Initial E (V)
VFINAL	QUANT	-1.50000E-001	Final E (V)
STEPSIZE	QUANT	2.00000E+000	Step Size (mV)
TIMERRES	QUANT	3.33340E-005	&Timer Resolution
FREQUENCY	QUANT	2.50000E+001	Frequency (Hz)
PULSESIZE	QUANT	2.50000E+001	Pulse Size E (mV)
PULSEON	QUANT	4.00000E-002	Pulse &Time (s)
NOISEREJECT	TOGGLE	F	Noise Rejection
AREA	QUANT	2.00000E-002	Sample Area (cm^2)
IMODE	SELECTOR	1	I/E Range Mode
IRANGE	QUANT	1.00000E-003	Max Current (mA)
EQDELAY	IQUANT	10	Equil. Time (s)
IRCOMP	SELECTOR	0	IRComp
PFCOR	QUANT	5.00000E+001	PF Corr. (ohm)
CYCLES	IQUANT	101	C&ycles (#)
ELECTRODETYPE	SELECTOR	0	Electrode Type
STRIPPING	TOGGLE	F	Used for Stripping
POLARITY	TOGGLE	F	Signal Polarity
LINEFREQ	IQUANT	60	Line Frequency (Hz)
INTPERIOD	QUANT	3.3334E-005	Integration Period (s)
SEQUENCER	TOGGLE	TRUE	Run as Sequence
PSTATMODEL	IQUANT	4	Pstat Model
PSTATSECTION	LABEL	REF600-24079	Pstat Section
PSTATSERIALNO	LABEL	24079	Pstat Serial Number
CTRLMODE	IQUANT	1	Control Mode
ELECTROMETER	IQUANT	0	RE=0 or CS=1
IESTAB	IQUANT	2	I/E Stability
CASPEED	IQUANT	6	Control Amp Speed
CONVENTION	IQUANT	1	Current Convention
ICHRANGE	IQUANT	2	Ich Range
ICHRANGEMODE	TOGGLE	F	Ich Auto Range
ICHOFFSETENABLE	TOGGLE	F	Ich Offset Enable
ICHOFFSET	QUANT	0	Ich Offset (V)
ICHFILTER	IQUANT	2	Ich Filter
VCHRANGE	IQUANT	2	Vch Range
VCHRANGEMODE	TOGGLE	F	Vch Auto Range
VCHOFFSETENABLE	TOGGLE	F	Vch Offset Enable
VCHOFFSET	QUANT	0	Vch Offset (V)
VCHFILTER	IQUANT	2	Vch Filter
ACHRANGE	IQUANT	2	Ach Range
ACHOFFSETENABLE	TOGGLE	F	Ach Offset Enable
ACHOFFSET	QUANT	0	Ach Offset (V)
ACHFILTER	IQUANT	1	Ach Filter
IERANGELOWERLIMIT	IQUANT	1	I/E Range Lower Limit
IERANGEMODE	TOGGLE	F	I/E AutoRange
IERANGE	IQUANT	6	I/E Range
POSFEEDENABLE	TOGGLE	F	Positive Feedback IR Comp
POSFEEDRESISTANCE	QUANT	0	Positive Feedback Resistance (ohm)
ACHSELECT	IQUANT	0	Ach Select
SENSECABLEID	IQUANT	13	Sense Cable ID
PWRCABLEID	IQUANT	13	Power Cable ID
DCCALDATE	LABEL	6/30/2020	DC Calibration Date
ACCALDATE	LABEL	6/30/2020	AC Calibration Date
THERMOSELECT	IQUANT	1	Thermo Select
FRAMEWORKVERSION	LABEL	7.8.2	Framework Version
INSTRUMENTVERSION	LABEL	4.40	Instrument Version
CURVE	TABLE	101
	Pt	T	Vfwd	Vrev	Vstep	Ifwd	Irev	Idif	Sig	Ach	IERange	Over	Temp
	#	s	V	V	V	A	A	A	V	V	#	bits	deg C
	0	0.04	-3.24899E-001	-3.75418E-001	-3.50159E-001	-1.90466E-009	-1.59531E-008	1.40485E-008	-3.75000E-001	4.25623E-004	6	..........a	-327.68
	1	0.08	-3.22367E-001	-3.73418E-001	-3.47893E-001	-1.50313E-008	-6.37773E-009	-8.65360E-009	-3.73000E-001	3.96873E-004	6	..........a	-327.68
	2	0.12	-3.20337E-001	-3.71405E-001	-3.45871E-001	-1.04316E-008	-2.66226E-009	-7.76932E-009	-3.71000E-001	4.06873E-004	6	..........a	-327.68
	3	0.16	-3.18333E-001	-3.69376E-001	-3.43854E-001	-6.00685E-009	-8.89530E-010	-5.11732E-009	-3.69000E-001	4.08956E-004	6	..........a	-327.68
	4	0.2	-3.16326E-001	-3.67382E-001	-3.41854E-001	-5.17591E-009	-6.64501E-010	-4.51141E-009	-3.67000E-001	3.93539E-004	6	..........a	-327.68
	5	0.24	-3.14367E-001	-3.65416E-001	-3.39892E-001	-2.91812E-009	1.54911E-009	-4.46724E-009	-3.65000E-001	4.01039E-004	6	..........a	-327.68
	6	0.28	-3.12328E-001	-3.63373E-001	-3.37850E-001	-5.61155E-010	5.72323E-010	-1.13348E-009	-3.63000E-001	4.02706E-004	6	..........a	-327.68
	7	0.32	-3.10331E-001	-3.61383E-001	-3.35857E-001	9.47371E-010	7.15674E-010	2.31696E-010	-3.61000E-001	4.10206E-004	6	..........a	-327.68
	8	0.36	-3.08338E-001	-3.59386E-001	-3.33862E-001	3.93775E-009	1.77664E-009	2.16111E-009	-3.59000E-001	3.93123E-004	6	..........a	-327.68
	9	0.4	-3.06381E-001	-3.57428E-001	-3.31904E-001	5.55546E-009	6.99839E-010	4.85562E-009	-3.57000E-001	3.80206E-004	6	..........a	-327.68
	10	0.44	-3.04353E-001	-3.55411E-001	-3.29882E-001	7.76990E-009	1.75164E-009	6.01826E-009	-3.55000E-001	4.11456E-004	6	..........a	-327.68
	11	0.48	-3.02353E-001	-3.53418E-001	-3.27886E-001	1.03411E-008	2.88120E-010	1.00529E-008	-3.53000E-001	3.98956E-004	6	..........a	-327.68
	12	0.52	-3.00352E-001	-3.51402E-001	-3.25877E-001	1.22905E-008	-8.94280E-011	1.23799E-008	-3.51000E-001	4.01456E-004	6	..........a	-327.68
	13	0.56	-2.98368E-001	-3.49426E-001	-3.23897E-001	1.63718E-008	-1.81106E-010	1.65529E-008	-3.49000E-001	4.01456E-004	6	..........a	-327.68
	14	0.6	-2.96370E-001	-3.47415E-001	-3.21892E-001	1.73995E-008	-1.32875E-009	1.87282E-008	-3.47000E-001	4.03956E-004	6	..........a	-327.68
	15	0.64	-2.94332E-001	-3.45399E-001	-3.19866E-001	2.03923E-008	-1.34292E-009	2.17353E-008	-3.45000E-001	4.01039E-004	6	..........a	-327.68
	16	0.68	-2.92312E-001	-3.43368E-001	-3.17840E-001	2.45870E-008	-3.64571E-009	2.82328E-008	-3.43000E-001	4.08539E-004	6	..........a	-327.68
	17	0.72	-2.90353E-001	-3.41437E-001	-3.15895E-001	2.72974E-008	-4.51249E-009	3.18099E-008	-3.41000E-001	3.95206E-004	6	..........a	-327.68
	18	0.76	-2.88346E-001	-3.39385E-001	-3.13865E-001	3.18705E-008	-5.46261E-009	3.73331E-008	-3.39000E-001	4.14373E-004	6	..........a	-327.68
	19	0.8	-2.86303E-001	-3.37405E-001	-3.11854E-001	3.45583E-008	-7.91542E-009	4.24737E-008	-3.37000E-001	3.91873E-004	6	..........a	-327.68
	20	0.84	-2.84316E-001	-3.35399E-001	-3.09858E-001	3.87922E-008	-8.72636E-009	4.75185E-008	-3.35000E-001	4.02289E-004	6	..........a	-327.68
	21	0.88	-2.82341E-001	-3.33421E-001	-3.07881E-001	4.38362E-008	-1.12834E-008	5.51195E-008	-3.33000E-001	4.08956E-004	6	..........a	-327.68
	22	0.92	-2.80353E-001	-3.31399E-001	-3.05876E-001	4.73541E-008	-1.36478E-008	6.10019E-008	-3.31000E-001	3.81039E-004	6	..........a	-327.68
	23	0.96	-2.78327E-001	-3.29417E-001	-3.03872E-001	5.30707E-008	-1.57022E-008	6.87729E-008	-3.29000E-001	4.08123E-004	6	..........a	-327.68
	24	1	-2.76346E-001	-3.27404E-001	-3.01875E-001	5.70045E-008	-1.87401E-008	7.57446E-008	-3.27000E-001	3.96873E-004	6	..........a	-327.68
	25	1.04	-2.74357E-001	-3.25436E-001	-2.99897E-001	6.20918E-008	-2.11446E-008	8.32364E-008	-3.25000E-001	3.88956E-004	6	..........a	-327.68
	26	1.08	-2.72380E-001	-3.23418E-001	-2.97899E-001	6.79717E-008	-2.47759E-008	9.27476E-008	-3.23000E-001	4.01456E-004	6	..........a	-327.68
	27	1.12	-2.70351E-001	-3.21432E-001	-2.95891E-001	7.22148E-008	-2.78430E-008	1.00058E-007	-3.21000E-001	3.93956E-004	6	..........a	-327.68
	28	1.16	-2.68347E-001	-3.19419E-001	-2.93883E-001	7.86197E-008	-3.06725E-008	1.09292E-007	-3.19000E-001	3.71039E-004	6	..........a	-327.68
	29	1.2	-2.66370E-001	-3.17449E-001	-2.91910E-001	8.27403E-008	-3.53814E-008	1.18122E-007	-3.17000E-001	3.75206E-004	6	..........a	-327.68
	30	1.24	-2.64363E-001	-3.15406E-001	-2.89885E-001	8.81076E-008	-3.82109E-008	1.26319E-007	-3.15000E-001	3.93539E-004	6	..........a	-327.68
	31	1.28	-2.62321E-001	-3.13408E-001	-2.87865E-001	9.41484E-008	-4.27849E-008	1.36933E-007	-3.13000E-001	3.91873E-004	6	..........a	-327.68
	32	1.32	-2.60335E-001	-3.11404E-001	-2.85869E-001	9.84806E-008	-4.67595E-008	1.45240E-007	-3.11000E-001	3.91456E-004	6	..........a	-327.68
	33	1.36	-2.58374E-001	-3.09430E-001	-2.83902E-001	1.04401E-007	-5.07567E-008	1.55158E-007	-3.09000E-001	4.06456E-004	6	..........a	-327.68
	34	1.4	-2.56351E-001	-3.07393E-001	-2.81872E-001	1.07743E-007	-5.58057E-008	1.63548E-007	-3.07000E-001	3.89789E-004	6	..........a	-327.68
	35	1.44	-2.54328E-001	-3.05433E-001	-2.79880E-001	1.11451E-007	-5.89761E-008	1.70427E-007	-3.05000E-001	3.94789E-004	6	..........a	-327.68
	36	1.48	-2.52342E-001	-3.03433E-001	-2.77888E-001	1.16185E-007	-6.43301E-008	1.80515E-007	-3.03000E-001	3.99373E-004	6	..........a	-327.68
	37	1.52	-2.50372E-001	-3.01473E-001	-2.75923E-001	1.18955E-007	-6.82773E-008	1.87232E-007	-3.01000E-001	3.91873E-004	6	..........a	-327.68
	38	1.56	-2.48361E-001	-2.99407E-001	-2.73884E-001	1.22719E-007	-7.18836E-008	1.94602E-007	-2.99000E-001	3.90623E-004	6	..........a	-327.68
	39	1.6	-2.46337E-001	-2.97434E-001	-2.71886E-001	1.23974E-007	-7.64100E-008	2.00384E-007	-2.97000E-001	3.89789E-004	6	..........a	-327.68
	40	1.64	-2.44359E-001	-2.95418E-001	-2.69888E-001	1.25750E-007	-7.89695E-008	2.04719E-007	-2.95000E-001	4.07706E-004	6	..........a	-327.68
	41	1.68	-2.42358E-001	-2.93441E-001	-2.67900E-001	1.27291E-007	-8.32650E-008	2.10556E-007	-2.93000E-001	4.03956E-004	6	..........a	-327.68
	42	1.72	-2.40328E-001	-2.91399E-001	-2.65864E-001	1.27262E-007	-8.60137E-008	2.13275E-007	-2.91000E-001	3.77289E-004	6	..........a	-327.68
	43	1.76	-2.38278E-001	-2.89401E-001	-2.63840E-001	1.28079E-007	-8.83048E-008	2.16383E-007	-2.89000E-001	3.88539E-004	6	..........a	-327.68
	44	1.8	-2.36332E-001	-2.87388E-001	-2.61860E-001	1.26491E-007	-9.15294E-008	2.18020E-007	-2.87000E-001	3.84789E-004	6	..........a	-327.68
	45	1.84	-2.34339E-001	-2.85412E-001	-2.59876E-001	1.25067E-007	-9.21645E-008	2.17232E-007	-2.85000E-001	3.95206E-004	6	..........a	-327.68
	46	1.88	-2.32334E-001	-2.83379E-001	-2.57857E-001	1.23980E-007	-9.44873E-008	2.18467E-007	-2.83000E-001	3.92289E-004	6	..........a	-327.68
	47	1.92	-2.30285E-001	-2.81390E-001	-2.55837E-001	1.20430E-007	-9.50648E-008	2.15495E-007	-2.81000E-001	4.15206E-004	6	..........a	-327.68
	48	1.96	-2.28313E-001	-2.79395E-001	-2.53854E-001	1.19101E-007	-9.54824E-008	2.14583E-007	-2.79000E-001	4.03123E-004	6	..........a	-327.68
	49	2	-2.26343E-001	-2.77420E-001	-2.51882E-001	1.14740E-007	-9.63758E-008	2.11116E-007	-2.77000E-001	4.03123E-004	6	..........a	-327.68
	50	2.04	-2.24358E-001	-2.75388E-001	-2.49873E-001	1.10731E-007	-9.43497E-008	2.05080E-007	-2.75000E-001	3.90206E-004	6	..........a	-327.68
	51	2.08	-2.22316E-001	-2.73388E-001	-2.47852E-001	1.07294E-007	-9.45573E-008	2.01852E-007	-2.73000E-001	3.88539E-004	6	..........a	-327.68
	52	2.12	-2.20324E-001	-2.71388E-001	-2.45856E-001	1.01947E-007	-9.29096E-008	1.94856E-007	-2.71000E-001	3.87706E-004	6	..........a	-327.68
	53	2.16	-2.18341E-001	-2.69391E-001	-2.43866E-001	9.84423E-008	-9.12277E-008	1.89670E-007	-2.69000E-001	3.93956E-004	6	..........a	-327.68
	54	2.2	-2.16268E-001	-2.67328E-001	-2.41798E-001	9.24382E-008	-8.93391E-008	1.81777E-007	-2.67000E-001	3.88539E-004	6	..........a	-327.68
	55	2.24	-2.14275E-001	-2.65331E-001	-2.39803E-001	8.75726E-008	-8.53153E-008	1.72888E-007	-2.65000E-001	3.88539E-004	6	..........a	-327.68
	56	2.28	-2.12293E-001	-2.63373E-001	-2.37833E-001	8.27286E-008	-8.37601E-008	1.66489E-007	-2.63000E-001	3.80623E-004	6	..........a	-327.68
	57	2.32	-2.10331E-001	-2.61383E-001	-2.35857E-001	7.67295E-008	-8.02438E-008	1.56973E-007	-2.61000E-001	3.77706E-004	6	..........a	-327.68
	58	2.36	-2.08323E-001	-2.59338E-001	-2.33830E-001	7.27907E-008	-7.64250E-008	1.49216E-007	-2.59000E-001	4.01039E-004	6	..........a	-327.68
	59	2.4	-2.06308E-001	-2.57341E-001	-2.31825E-001	6.65674E-008	-7.38738E-008	1.40441E-007	-2.57000E-001	3.83956E-004	6	..........a	-327.68
	60	2.44	-2.04337E-001	-2.55386E-001	-2.29862E-001	6.18893E-008	-6.89815E-008	1.30871E-007	-2.55000E-001	4.03123E-004	6	..........a	-327.68
	61	2.48	-2.02356E-001	-2.53371E-001	-2.27864E-001	5.75004E-008	-6.62278E-008	1.23728E-007	-2.53000E-001	4.03539E-004	6	..........a	-327.68
	62	2.52	-2.00366E-001	-2.51357E-001	-2.25861E-001	5.16405E-008	-6.19531E-008	1.13594E-007	-2.51000E-001	3.99373E-004	6	..........a	-327.68
	63	2.56	-1.98346E-001	-2.49361E-001	-2.23854E-001	4.86984E-008	-5.75784E-008	1.06277E-007	-2.49000E-001	4.19789E-004	6	..........a	-327.68
	64	2.6	-1.96346E-001	-2.47358E-001	-2.21852E-001	4.31852E-008	-5.45664E-008	9.77516E-008	-2.47000E-001	4.03539E-004	6	..........a	-327.68
	65	2.64	-1.94395E-001	-2.45369E-001	-2.19882E-001	3.90155E-008	-4.87848E-008	8.78003E-008	-2.45000E-001	4.03123E-004	6	..........a	-327.68
	66	2.68	-1.92385E-001	-2.43328E-001	-2.17856E-001	3.54759E-008	-4.58236E-008	8.12995E-008	-2.43000E-001	3.95206E-004	6	..........a	-327.68
	67	2.72	-1.90311E-001	-2.41283E-001	-2.15797E-001	3.09595E-008	-4.19673E-008	7.29268E-008	-2.41000E-001	4.09789E-004	6	..........a	-327.68
	68	2.76	-1.88356E-001	-2.39327E-001	-2.13842E-001	2.84109E-008	-3.76692E-008	6.60801E-008	-2.39000E-001	4.03956E-004	6	..........a	-327.68
	69	2.8	-1.86393E-001	-2.37344E-001	-2.11868E-001	2.35552E-008	-3.45588E-008	5.81141E-008	-2.37000E-001	4.03123E-004	6	..........a	-327.68
	70	2.84	-1.84371E-001	-2.35315E-001	-2.09843E-001	2.09257E-008	-2.92898E-008	5.02156E-008	-2.35000E-001	4.06039E-004	6	..........a	-327.68
	71	2.88	-1.82376E-001	-2.33303E-001	-2.07840E-001	1.84896E-008	-2.63503E-008	4.48399E-008	-2.33000E-001	4.03956E-004	6	..........a	-327.68
	72	2.92	-1.80371E-001	-2.31323E-001	-2.05847E-001	1.48366E-008	-2.27731E-008	3.76098E-008	-2.31000E-001	3.87706E-004	6	..........a	-327.68
	73	2.96	-1.78418E-001	-2.29366E-001	-2.03892E-001	1.36698E-008	-1.91994E-008	3.28692E-008	-2.29000E-001	4.04373E-004	6	..........a	-327.68
	74	3	-1.76405E-001	-2.27308E-001	-2.01857E-001	1.04936E-008	-1.68324E-008	2.73260E-008	-2.27000E-001	3.95623E-004	6	..........a	-327.68
	75	3.04	-1.74407E-001	-2.25324E-001	-1.99866E-001	8.69336E-009	-1.23343E-008	2.10277E-008	-2.25000E-001	4.20623E-004	6	..........a	-327.68
	76	3.08	-1.72416E-001	-2.23340E-001	-1.97878E-001	7.18566E-009	-1.04983E-008	1.76839E-008	-2.23000E-001	4.03539E-004	6	..........a	-327.68
	77	3.12	-1.70427E-001	-2.21358E-001	-1.95893E-001	4.19612E-009	-7.90375E-009	1.20999E-008	-2.21000E-001	3.96456E-004	6	..........a	-327.68
	78	3.16	-1.68443E-001	-2.19308E-001	-1.93876E-001	3.89358E-009	-4.17078E-009	8.06436E-009	-2.19000E-001	4.12289E-004	6	..........a	-327.68
	79	3.2	-1.66411E-001	-2.17315E-001	-1.91863E-001	1.35909E-009	-2.06385E-009	3.42294E-009	-2.17000E-001	3.89373E-004	6	..........a	-327.68
	80	3.24	-1.64379E-001	-2.15302E-001	-1.89841E-001	8.72361E-010	1.01321E-009	-1.40851E-010	-2.15000E-001	4.00623E-004	6	..........a	-327.68
	81	3.28	-1.62432E-001	-2.13329E-001	-1.87881E-001	-2.76118E-010	2.10168E-009	-2.37780E-009	-2.13000E-001	4.09373E-004	6	..........a	-327.68
	82	3.32	-1.60432E-001	-2.11296E-001	-1.85864E-001	-2.51890E-009	4.68285E-009	-7.20175E-009	-2.11000E-001	3.98123E-004	6	..........a	-327.68
	83	3.36	-1.58408E-001	-2.09300E-001	-1.83854E-001	-2.23637E-009	6.63809E-009	-8.87446E-009	-2.09000E-001	3.96873E-004	6	..........a	-327.68
	84	3.4	-1.56407E-001	-2.07295E-001	-1.81851E-001	-4.15078E-009	7.92076E-009	-1.20715E-008	-2.07000E-001	4.04789E-004	6	..........a	-327.68
	85	3.44	-1.54432E-001	-2.05332E-001	-1.79882E-001	-4.86087E-009	1.09828E-008	-1.58437E-008	-2.05000E-001	3.99373E-004	6	..........a	-327.68
	86	3.48	-1.52463E-001	-2.03300E-001	-1.77882E-001	-4.83170E-009	1.16862E-008	-1.65179E-008	-2.03000E-001	4.06456E-004	6	..........a	-327.68
	87	3.52	-1.50446E-001	-2.01318E-001	-1.75882E-001	-6.59276E-009	1.35631E-008	-2.01559E-008	-2.01000E-001	3.97289E-004	6	..........a	-327.68
	88	3.56	-1.48458E-001	-1.99321E-001	-1.73889E-001	-5.69181E-009	1.51333E-008	-2.08251E-008	-1.99000E-001	3.92289E-004	6	..........a	-327.68
	89	3.6	-1.46464E-001	-1.97317E-001	-1.71891E-001	-7.58872E-009	1.54892E-008	-2.30779E-008	-1.97000E-001	3.86873E-004	6	..........a	-327.68
	90	3.64	-1.44467E-001	-1.95308E-001	-1.69887E-001	-7.37786E-009	1.77712E-008	-2.51490E-008	-1.95000E-001	3.89789E-004	6	..........a	-327.68
	91	3.68	-1.42446E-001	-1.93314E-001	-1.67880E-001	-7.56538E-009	1.80454E-008	-2.56108E-008	-1.93000E-001	4.08123E-004	6	..........a	-327.68
	92	3.72	-1.40463E-001	-1.91301E-001	-1.65882E-001	-8.24463E-009	1.94647E-008	-2.77094E-008	-1.91000E-001	4.02289E-004	6	..........a	-327.68
	93	3.76	-1.38441E-001	-1.89292E-001	-1.63866E-001	-7.83208E-009	2.06440E-008	-2.84761E-008	-1.89000E-001	4.00623E-004	6	..........a	-327.68
	94	3.8	-1.36454E-001	-1.87282E-001	-1.61868E-001	-8.57717E-009	2.03507E-008	-2.89278E-008	-1.87000E-001	3.84373E-004	6	..........a	-327.68
	95	3.84	-1.34448E-001	-1.85280E-001	-1.59864E-001	-9.04140E-009	2.23276E-008	-3.13690E-008	-1.85000E-001	4.11873E-004	6	..........a	-327.68
	96	3.88	-1.32431E-001	-1.83273E-001	-1.57852E-001	-8.64135E-009	2.20501E-008	-3.06914E-008	-1.83000E-001	3.85623E-004	6	..........a	-327.68
	97	3.92	-1.30443E-001	-1.81291E-001	-1.55867E-001	-9.29060E-009	2.27018E-008	-3.19924E-008	-1.81000E-001	3.88123E-004	6	..........a	-327.68
	98	3.96	-1.28443E-001	-1.79270E-001	-1.53857E-001	-8.45466E-009	2.37753E-008	-3.22299E-008	-1.79000E-001	4.02289E-004	6	..........a	-327.68
	99	4	-1.26436E-001	-1.77286E-001	-1.51861E-001	-9.59730E-009	2.36761E-008	-3.32734E-008	-1.77000E-001	3.78123E-004	6	..........a	-327.68
	100	4.04	-1.24460E-001	-1.75284E-001	-1.49872E-001	-9.24476E-009	2.55747E-008	-3.48194E-008	-1.75000E-001	3.82289E-004	6	..........a	-327.68
