EXPLAIN
TAG	SQUARE_WAVE
TITLE	LABEL	Square Wave Voltammetry	Test Identifier
DATE	LABEL	8/31/2020	Date
TIME	LABEL	12:35:21	Time
NOTES	NOTES	1	Notes...
	
PSTAT	PSTAT	REF600-24079	Potentiostat
VINIT	QUANT	-3.50000E-001	Initial E (V)
VFINAL	QUANT	-1.50000E-001	Final E (V)
STEPSIZE	QUANT	2.00000E+000	Step Size (mV)
TIMERRES	QUANT	3.33340E-005	&Timer Resolution
FREQUENCY	QUANT	1.00000E+001	Frequency (Hz)
PULSESIZE	QUANT	2.50000E+001	Pulse Size E (mV)
PULSEON	QUANT	1.00000E-001	Pulse &Time (s)
NOISEREJECT	TOGGLE	F	Noise Rejection
AREA	QUANT	2.00000E-002	Sample Area (cm^2)
IMODE	SELECTOR	1	I/E Range Mode
IRANGE	QUANT	1.00000E-003	Max Current (mA)
EQDELAY	IQUANT	10	Equil. Time (s)
IRCOMP	SELECTOR	0	IRComp
PFCOR	QUANT	5.00000E+001	PF Corr. (ohm)
CYCLES	IQUANT	101	C&ycles (#)
ELECTRODETYPE	SELECTOR	0	Electrode Type
STRIPPING	TOGGLE	F	Used for Stripping
POLARITY	TOGGLE	F	Signal Polarity
LINEFREQ	IQUANT	60	Line Frequency (Hz)
INTPERIOD	QUANT	3.3334E-005	Integration Period (s)
SEQUENCER	TOGGLE	TRUE	Run as Sequence
PSTATMODEL	IQUANT	4	Pstat Model
PSTATSECTION	LABEL	REF600-24079	Pstat Section
PSTATSERIALNO	LABEL	24079	Pstat Serial Number
CTRLMODE	IQUANT	1	Control Mode
ELECTROMETER	IQUANT	0	RE=0 or CS=1
IESTAB	IQUANT	2	I/E Stability
CASPEED	IQUANT	6	Control Amp Speed
CONVENTION	IQUANT	1	Current Convention
ICHRANGE	IQUANT	2	Ich Range
ICHRANGEMODE	TOGGLE	F	Ich Auto Range
ICHOFFSETENABLE	TOGGLE	F	Ich Offset Enable
ICHOFFSET	QUANT	0	Ich Offset (V)
ICHFILTER	IQUANT	2	Ich Filter
VCHRANGE	IQUANT	2	Vch Range
VCHRANGEMODE	TOGGLE	F	Vch Auto Range
VCHOFFSETENABLE	TOGGLE	F	Vch Offset Enable
VCHOFFSET	QUANT	0	Vch Offset (V)
VCHFILTER	IQUANT	2	Vch Filter
ACHRANGE	IQUANT	2	Ach Range
ACHOFFSETENABLE	TOGGLE	F	Ach Offset Enable
ACHOFFSET	QUANT	0	Ach Offset (V)
ACHFILTER	IQUANT	1	Ach Filter
IERANGELOWERLIMIT	IQUANT	1	I/E Range Lower Limit
IERANGEMODE	TOGGLE	F	I/E AutoRange
IERANGE	IQUANT	6	I/E Range
POSFEEDENABLE	TOGGLE	F	Positive Feedback IR Comp
POSFEEDRESISTANCE	QUANT	0	Positive Feedback Resistance (ohm)
ACHSELECT	IQUANT	0	Ach Select
SENSECABLEID	IQUANT	13	Sense Cable ID
PWRCABLEID	IQUANT	13	Power Cable ID
DCCALDATE	LABEL	6/30/2020	DC Calibration Date
ACCALDATE	LABEL	6/30/2020	AC Calibration Date
THERMOSELECT	IQUANT	1	Thermo Select
FRAMEWORKVERSION	LABEL	7.8.2	Framework Version
INSTRUMENTVERSION	LABEL	4.40	Instrument Version
CURVE	TABLE	101
	Pt	T	Vfwd	Vrev	Vstep	Ifwd	Irev	Idif	Sig	Ach	IERange	Over	Temp
	#	s	V	V	V	A	A	A	V	V	#	bits	deg C
	0	0.1	-3.24840E-001	-3.74883E-001	-3.49861E-001	-1.18089E-008	-4.60489E-008	3.42400E-008	-3.75000E-001	3.50873E-004	6	..........a	-327.68
	1	0.2	-3.22860E-001	-3.72885E-001	-3.47872E-001	2.73827E-009	-4.10333E-008	4.37716E-008	-3.73000E-001	3.36706E-004	6	..........a	-327.68
	2	0.3	-3.20891E-001	-3.70784E-001	-3.45837E-001	5.40694E-009	-3.87017E-008	4.41086E-008	-3.71000E-001	3.37873E-004	6	..........a	-327.68
	3	0.4	-3.18895E-001	-3.68855E-001	-3.43875E-001	6.83512E-009	-3.75465E-008	4.43816E-008	-3.69000E-001	3.28373E-004	6	..........a	-327.68
	4	0.5	-3.16859E-001	-3.66914E-001	-3.41887E-001	7.82958E-009	-3.65797E-008	4.44093E-008	-3.67000E-001	3.48706E-004	6	..........a	-327.68
	5	0.6	-3.14875E-001	-3.64850E-001	-3.39863E-001	8.52033E-009	-3.57540E-008	4.42743E-008	-3.65000E-001	3.43706E-004	6	..........a	-327.68
	6	0.7	-3.12880E-001	-3.62831E-001	-3.37855E-001	9.28777E-009	-3.52242E-008	4.45120E-008	-3.63000E-001	3.26373E-004	6	..........a	-327.68
	7	0.8	-3.10871E-001	-3.60871E-001	-3.35871E-001	1.03042E-008	-3.47958E-008	4.51001E-008	-3.61000E-001	3.37706E-004	6	..........a	-327.68
	8	0.9	-3.08805E-001	-3.58884E-001	-3.33844E-001	1.09666E-008	-3.44288E-008	4.53954E-008	-3.59000E-001	3.38706E-004	6	..........a	-327.68
	9	1	-3.06828E-001	-3.56822E-001	-3.31825E-001	1.14894E-008	-3.39941E-008	4.54835E-008	-3.57000E-001	3.49539E-004	6	..........a	-327.68
	10	1.1	-3.04853E-001	-3.54850E-001	-3.29852E-001	1.22115E-008	-3.36340E-008	4.58455E-008	-3.55000E-001	3.26706E-004	6	..........a	-327.68
	11	1.2	-3.02873E-001	-3.52874E-001	-3.27874E-001	1.30149E-008	-3.34000E-008	4.64149E-008	-3.53000E-001	3.33539E-004	6	..........a	-327.68
	12	1.3	-3.00842E-001	-3.50880E-001	-3.25861E-001	1.36066E-008	-3.31396E-008	4.67463E-008	-3.51000E-001	3.34873E-004	6	..........a	-327.68
	13	1.4	-2.98843E-001	-3.48870E-001	-3.23857E-001	1.43904E-008	-3.27246E-008	4.71150E-008	-3.49000E-001	3.24706E-004	6	..........a	-327.68
	14	1.5	-2.96875E-001	-3.46866E-001	-3.21871E-001	1.53365E-008	-3.29013E-008	4.82378E-008	-3.47000E-001	3.26373E-004	6	..........a	-327.68
	15	1.6	-2.94881E-001	-3.44875E-001	-3.19878E-001	1.62760E-008	-3.27896E-008	4.90656E-008	-3.45000E-001	3.24206E-004	6	..........a	-327.68
	16	1.7	-2.92745E-001	-3.42872E-001	-3.17808E-001	1.71768E-008	-3.26252E-008	4.98020E-008	-3.43000E-001	3.31206E-004	6	..........a	-327.68
	17	1.8	-2.90834E-001	-3.40838E-001	-3.15836E-001	1.81076E-008	-3.28466E-008	5.09541E-008	-3.41000E-001	3.34373E-004	6	..........a	-327.68
	18	1.9	-2.88906E-001	-3.38861E-001	-3.13884E-001	1.89867E-008	-3.27109E-008	5.16976E-008	-3.39000E-001	3.32039E-004	6	..........a	-327.68
	19	2	-2.86882E-001	-3.36843E-001	-3.11862E-001	2.04575E-008	-3.29256E-008	5.33831E-008	-3.37000E-001	3.40206E-004	6	..........a	-327.68
	20	2.1	-2.84849E-001	-3.34874E-001	-3.09862E-001	2.14893E-008	-3.32350E-008	5.47243E-008	-3.35000E-001	3.48873E-004	6	..........a	-327.68
	21	2.2	-2.82816E-001	-3.32849E-001	-3.07832E-001	2.30492E-008	-3.36544E-008	5.67035E-008	-3.33000E-001	3.41206E-004	6	..........a	-327.68
	22	2.3	-2.80892E-001	-3.30826E-001	-3.05859E-001	2.43053E-008	-3.39617E-008	5.82671E-008	-3.31000E-001	3.51539E-004	6	..........a	-327.68
	23	2.4	-2.78877E-001	-3.28877E-001	-3.03877E-001	2.58409E-008	-3.45838E-008	6.04247E-008	-3.29000E-001	3.44873E-004	6	..........a	-327.68
	24	2.5	-2.76836E-001	-3.26883E-001	-3.01860E-001	2.74407E-008	-3.50605E-008	6.25013E-008	-3.27000E-001	3.56206E-004	6	..........a	-327.68
	25	2.6	-2.74853E-001	-3.24854E-001	-2.99853E-001	2.90343E-008	-3.57630E-008	6.47972E-008	-3.25000E-001	3.48206E-004	6	..........a	-327.68
	26	2.7	-2.72871E-001	-3.22859E-001	-2.97865E-001	3.06985E-008	-3.64787E-008	6.71772E-008	-3.23000E-001	3.49206E-004	6	..........a	-327.68
	27	2.8	-2.70880E-001	-3.20875E-001	-2.95877E-001	3.25167E-008	-3.73712E-008	6.98879E-008	-3.21000E-001	3.47373E-004	6	..........a	-327.68
	28	2.9	-2.68882E-001	-3.18893E-001	-2.93887E-001	3.40336E-008	-3.83993E-008	7.24329E-008	-3.19000E-001	3.51706E-004	6	..........a	-327.68
	29	3	-2.66808E-001	-3.16872E-001	-2.91840E-001	3.57455E-008	-3.95478E-008	7.52932E-008	-3.17000E-001	3.49039E-004	6	..........a	-327.68
	30	3.1	-2.64888E-001	-3.14878E-001	-2.89883E-001	3.72360E-008	-4.09343E-008	7.81703E-008	-3.15000E-001	3.59373E-004	6	..........a	-327.68
	31	3.2	-2.62887E-001	-3.12892E-001	-2.87889E-001	3.88182E-008	-4.21114E-008	8.09296E-008	-3.13000E-001	3.65539E-004	6	..........a	-327.68
	32	3.3	-2.60779E-001	-3.10888E-001	-2.85834E-001	4.03814E-008	-4.35080E-008	8.38893E-008	-3.11000E-001	3.54873E-004	6	..........a	-327.68
	33	3.4	-2.58832E-001	-3.08856E-001	-2.83844E-001	4.17319E-008	-4.47241E-008	8.64560E-008	-3.09000E-001	3.62206E-004	6	..........a	-327.68
	34	3.5	-2.56860E-001	-3.06860E-001	-2.81860E-001	4.29117E-008	-4.63146E-008	8.92263E-008	-3.07000E-001	3.63706E-004	6	..........a	-327.68
	35	3.6	-2.54888E-001	-3.04889E-001	-2.79888E-001	4.40222E-008	-4.78108E-008	9.18330E-008	-3.05000E-001	3.74206E-004	6	..........a	-327.68
	36	3.7	-2.52833E-001	-3.02901E-001	-2.77867E-001	4.49583E-008	-4.92910E-008	9.42493E-008	-3.03000E-001	3.52039E-004	6	..........a	-327.68
	37	3.8	-2.50842E-001	-3.00893E-001	-2.75867E-001	4.56144E-008	-5.07342E-008	9.63486E-008	-3.01000E-001	3.41873E-004	6	..........a	-327.68
	38	3.9	-2.48877E-001	-2.98857E-001	-2.73867E-001	4.60561E-008	-5.22547E-008	9.83108E-008	-2.99000E-001	3.67206E-004	6	..........a	-327.68
	39	4	-2.46874E-001	-2.96878E-001	-2.71876E-001	4.65978E-008	-5.35629E-008	1.00161E-007	-2.97000E-001	3.69039E-004	6	..........a	-327.68
	40	4.1	-2.44869E-001	-2.94843E-001	-2.69856E-001	4.66612E-008	-5.50124E-008	1.01674E-007	-2.95000E-001	3.69706E-004	6	..........a	-327.68
	41	4.2	-2.42790E-001	-2.92759E-001	-2.67774E-001	4.66919E-008	-5.60409E-008	1.02733E-007	-2.93000E-001	3.55039E-004	6	..........a	-327.68
	42	4.3	-2.40871E-001	-2.90849E-001	-2.65860E-001	4.64462E-008	-5.72120E-008	1.03658E-007	-2.91000E-001	3.65206E-004	6	..........a	-327.68
	43	4.4	-2.38905E-001	-2.88900E-001	-2.63902E-001	4.61024E-008	-5.79731E-008	1.04076E-007	-2.89000E-001	3.67373E-004	6	..........a	-327.68
	44	4.5	-2.36856E-001	-2.86877E-001	-2.61866E-001	4.56054E-008	-5.88016E-008	1.04407E-007	-2.87000E-001	3.65373E-004	6	..........a	-327.68
	45	4.6	-2.34820E-001	-2.84861E-001	-2.59840E-001	4.49620E-008	-5.91379E-008	1.04100E-007	-2.85000E-001	3.61206E-004	6	..........a	-327.68
	46	4.7	-2.32855E-001	-2.82837E-001	-2.57846E-001	4.40819E-008	-5.94443E-008	1.03526E-007	-2.83000E-001	3.67706E-004	6	..........a	-327.68
	47	4.8	-2.30858E-001	-2.80914E-001	-2.55886E-001	4.32361E-008	-5.92736E-008	1.02510E-007	-2.81000E-001	3.78873E-004	6	..........a	-327.68
	48	4.9	-2.28753E-001	-2.78881E-001	-2.53817E-001	4.21813E-008	-5.93286E-008	1.01510E-007	-2.79000E-001	3.67539E-004	6	..........a	-327.68
	49	5	-2.26823E-001	-2.76867E-001	-2.51845E-001	4.13262E-008	-5.86639E-008	9.99901E-008	-2.77000E-001	3.54373E-004	6	..........a	-327.68
	50	5.1	-2.24861E-001	-2.74857E-001	-2.49859E-001	4.01470E-008	-5.79858E-008	9.81328E-008	-2.75000E-001	3.62039E-004	6	..........a	-327.68
	51	5.2	-2.22867E-001	-2.72870E-001	-2.47868E-001	3.88752E-008	-5.69320E-008	9.58072E-008	-2.73000E-001	3.56539E-004	6	..........a	-327.68
	52	5.3	-2.20845E-001	-2.70838E-001	-2.45842E-001	3.78311E-008	-5.59982E-008	9.38293E-008	-2.71000E-001	3.52706E-004	6	..........a	-327.68
	53	5.4	-2.18846E-001	-2.68857E-001	-2.43852E-001	3.68346E-008	-5.47104E-008	9.15450E-008	-2.69000E-001	3.70373E-004	6	..........a	-327.68
	54	5.5	-2.16894E-001	-2.66820E-001	-2.41857E-001	3.57615E-008	-5.32182E-008	8.89797E-008	-2.67000E-001	3.72039E-004	6	..........a	-327.68
	55	5.6	-2.14869E-001	-2.64903E-001	-2.39886E-001	3.45993E-008	-5.16610E-008	8.62603E-008	-2.65000E-001	3.59706E-004	6	..........a	-327.68
	56	5.7	-2.12781E-001	-2.62883E-001	-2.37832E-001	3.34222E-008	-5.00695E-008	8.34916E-008	-2.63000E-001	3.52706E-004	6	..........a	-327.68
	57	5.8	-2.10856E-001	-2.60833E-001	-2.35845E-001	3.24240E-008	-4.80482E-008	8.04722E-008	-2.61000E-001	3.59206E-004	6	..........a	-327.68
	58	5.9	-2.08859E-001	-2.58837E-001	-2.33848E-001	3.16563E-008	-4.62423E-008	7.78986E-008	-2.59000E-001	3.47206E-004	6	..........a	-327.68
	59	6	-2.06870E-001	-2.56863E-001	-2.31866E-001	3.05958E-008	-4.43947E-008	7.49905E-008	-2.57000E-001	3.45706E-004	6	..........a	-327.68
	60	6.1	-2.04824E-001	-2.54898E-001	-2.29861E-001	2.98000E-008	-4.24848E-008	7.22849E-008	-2.55000E-001	3.52373E-004	6	..........a	-327.68
	61	6.2	-2.02825E-001	-2.52825E-001	-2.27825E-001	2.90243E-008	-4.06109E-008	6.96352E-008	-2.53000E-001	3.46373E-004	6	..........a	-327.68
	62	6.3	-2.00870E-001	-2.50839E-001	-2.25854E-001	2.81732E-008	-3.88234E-008	6.69965E-008	-2.51000E-001	3.64039E-004	6	..........a	-327.68
	63	6.4	-1.98882E-001	-2.48868E-001	-2.23875E-001	2.76491E-008	-3.69931E-008	6.46422E-008	-2.49000E-001	3.49873E-004	6	..........a	-327.68
	64	6.5	-1.96847E-001	-2.46868E-001	-2.21858E-001	2.68680E-008	-3.52322E-008	6.21002E-008	-2.47000E-001	3.44539E-004	6	..........a	-327.68
	65	6.6	-1.94839E-001	-2.44856E-001	-2.19847E-001	2.61759E-008	-3.35790E-008	5.97549E-008	-2.45000E-001	3.42706E-004	6	..........a	-327.68
	66	6.7	-1.92866E-001	-2.42811E-001	-2.17838E-001	2.57715E-008	-3.21725E-008	5.79440E-008	-2.43000E-001	3.58539E-004	6	..........a	-327.68
	67	6.8	-1.90901E-001	-2.40864E-001	-2.15882E-001	2.52655E-008	-3.06917E-008	5.59571E-008	-2.41000E-001	3.55539E-004	6	..........a	-327.68
	68	6.9	-1.88789E-001	-2.38903E-001	-2.13846E-001	2.47317E-008	-2.93268E-008	5.40585E-008	-2.39000E-001	3.57373E-004	6	..........a	-327.68
	69	7	-1.86838E-001	-2.36844E-001	-2.11841E-001	2.43857E-008	-2.78366E-008	5.22223E-008	-2.37000E-001	3.53373E-004	6	..........a	-327.68
	70	7.1	-1.84870E-001	-2.34821E-001	-2.09845E-001	2.40706E-008	-2.66611E-008	5.07318E-008	-2.35000E-001	3.46539E-004	6	..........a	-327.68
	71	7.2	-1.82868E-001	-2.32865E-001	-2.07866E-001	2.38069E-008	-2.57800E-008	4.95870E-008	-2.33000E-001	3.43539E-004	6	..........a	-327.68
	72	7.3	-1.80779E-001	-2.30860E-001	-2.05819E-001	2.35706E-008	-2.48766E-008	4.84472E-008	-2.31000E-001	3.51873E-004	6	..........a	-327.68
	73	7.4	-1.78818E-001	-2.28815E-001	-2.03817E-001	2.33326E-008	-2.38745E-008	4.72070E-008	-2.29000E-001	3.57373E-004	6	..........a	-327.68
	74	7.5	-1.76830E-001	-2.26828E-001	-2.01829E-001	2.29555E-008	-2.30177E-008	4.59732E-008	-2.27000E-001	3.63039E-004	6	..........a	-327.68
	75	7.6	-1.74864E-001	-2.24860E-001	-1.99862E-001	2.28142E-008	-2.23439E-008	4.51581E-008	-2.25000E-001	3.69873E-004	6	..........a	-327.68
	76	7.7	-1.72839E-001	-2.22858E-001	-1.97849E-001	2.26401E-008	-2.16715E-008	4.43116E-008	-2.23000E-001	3.42373E-004	6	..........a	-327.68
	77	7.8	-1.70826E-001	-2.20848E-001	-1.95837E-001	2.24948E-008	-2.09974E-008	4.34922E-008	-2.21000E-001	3.46539E-004	6	..........a	-327.68
	78	7.9	-1.68854E-001	-2.18852E-001	-1.93853E-001	2.23698E-008	-2.03617E-008	4.27314E-008	-2.19000E-001	3.54706E-004	6	..........a	-327.68
	79	8	-1.66860E-001	-2.16881E-001	-1.91871E-001	2.23928E-008	-1.99613E-008	4.23541E-008	-2.17000E-001	3.50873E-004	6	..........a	-327.68
	80	8.1	-1.64720E-001	-2.14862E-001	-1.89791E-001	2.22831E-008	-1.95312E-008	4.18143E-008	-2.15000E-001	3.60373E-004	6	..........a	-327.68
	81	8.2	-1.62829E-001	-2.12845E-001	-1.87837E-001	2.21397E-008	-1.91065E-008	4.12462E-008	-2.13000E-001	3.48206E-004	6	..........a	-327.68
	82	8.3	-1.60888E-001	-2.10860E-001	-1.85874E-001	2.21477E-008	-1.87041E-008	4.08519E-008	-2.11000E-001	3.50873E-004	6	..........a	-327.68
	83	8.4	-1.58868E-001	-2.08853E-001	-1.83861E-001	2.21624E-008	-1.83234E-008	4.04858E-008	-2.09000E-001	3.53373E-004	6	..........a	-327.68
	84	8.5	-1.56817E-001	-2.06863E-001	-1.81840E-001	2.19217E-008	-1.82741E-008	4.01958E-008	-2.07000E-001	3.60039E-004	6	..........a	-327.68
	85	8.6	-1.54795E-001	-2.04813E-001	-1.79804E-001	2.22304E-008	-1.76010E-008	3.98314E-008	-2.05000E-001	3.43373E-004	6	..........a	-327.68
	86	8.7	-1.52874E-001	-2.02827E-001	-1.77851E-001	2.20911E-008	-1.74743E-008	3.95654E-008	-2.03000E-001	3.39039E-004	6	..........a	-327.68
	87	8.8	-1.50851E-001	-2.00866E-001	-1.75859E-001	2.21017E-008	-1.72589E-008	3.93607E-008	-2.01000E-001	3.42373E-004	6	..........a	-327.68
	88	8.9	-1.48837E-001	-1.98878E-001	-1.73857E-001	2.18910E-008	-1.71023E-008	3.89933E-008	-1.99000E-001	3.66206E-004	6	..........a	-327.68
	89	9	-1.46842E-001	-1.96867E-001	-1.71854E-001	2.20441E-008	-1.68292E-008	3.88733E-008	-1.97000E-001	3.49706E-004	6	..........a	-327.68
	90	9.1	-1.44848E-001	-1.94851E-001	-1.69850E-001	2.21537E-008	-1.65525E-008	3.87063E-008	-1.95000E-001	3.53206E-004	6	..........a	-327.68
	91	9.2	-1.42856E-001	-1.92865E-001	-1.67861E-001	2.23281E-008	-1.63478E-008	3.86759E-008	-1.93000E-001	3.52706E-004	6	..........a	-327.68
	92	9.3	-1.40852E-001	-1.90912E-001	-1.65882E-001	2.23028E-008	-1.62298E-008	3.85326E-008	-1.91000E-001	3.50039E-004	6	..........a	-327.68
	93	9.4	-1.38781E-001	-1.88800E-001	-1.63790E-001	2.22881E-008	-1.61218E-008	3.84099E-008	-1.89000E-001	3.54539E-004	6	..........a	-327.68
	94	9.5	-1.36869E-001	-1.86836E-001	-1.61852E-001	2.22287E-008	-1.58624E-008	3.80912E-008	-1.87000E-001	3.59873E-004	6	..........a	-327.68
	95	9.6	-1.34863E-001	-1.84876E-001	-1.59870E-001	2.24188E-008	-1.56114E-008	3.80302E-008	-1.85000E-001	3.58706E-004	6	..........a	-327.68
	96	9.7	-1.32751E-001	-1.82863E-001	-1.57807E-001	2.25094E-008	-1.55697E-008	3.80792E-008	-1.83000E-001	3.54706E-004	6	..........a	-327.68
	97	9.8	-1.30823E-001	-1.80778E-001	-1.55800E-001	2.26088E-008	-1.54754E-008	3.80842E-008	-1.81000E-001	3.53373E-004	6	..........a	-327.68
	98	9.9	-1.28836E-001	-1.78838E-001	-1.53837E-001	2.25388E-008	-1.52220E-008	3.77608E-008	-1.79000E-001	3.54206E-004	6	..........a	-327.68
	99	10	-1.26880E-001	-1.76860E-001	-1.51870E-001	2.25918E-008	-1.52690E-008	3.78608E-008	-1.77000E-001	3.57873E-004	6	..........a	-327.68
	100	10.1	-1.24810E-001	-1.74867E-001	-1.49838E-001	2.27338E-008	-1.50893E-008	3.78231E-008	-1.75000E-001	3.41873E-004	6	..........a	-327.68
