EXPLAIN
TAG	SQUARE_WAVE
TITLE	LABEL	Square Wave Voltammetry	Test Identifier
DATE	LABEL	8/25/2020	Date
TIME	LABEL	14:52:12	Time
NOTES	NOTES	1	Notes...
	
PSTAT	PSTAT	REF600-24079	Potentiostat
VINIT	QUANT	-3.50000E-001	Initial E (V)
VFINAL	QUANT	-1.50000E-001	Final E (V)
STEPSIZE	QUANT	2.00000E+000	Step Size (mV)
TIMERRES	QUANT	3.33340E-005	&Timer Resolution
FREQUENCY	QUANT	1.00000E+001	Frequency (Hz)
PULSESIZE	QUANT	2.50000E+001	Pulse Size E (mV)
PULSEON	QUANT	1.00000E-001	Pulse &Time (s)
NOISEREJECT	TOGGLE	F	Noise Rejection
AREA	QUANT	2.00000E-002	Sample Area (cm^2)
IMODE	SELECTOR	1	I/E Range Mode
IRANGE	QUANT	1.00000E-003	Max Current (mA)
EQDELAY	IQUANT	10	Equil. Time (s)
IRCOMP	SELECTOR	0	IRComp
PFCOR	QUANT	5.00000E+001	PF Corr. (ohm)
CYCLES	IQUANT	101	C&ycles (#)
ELECTRODETYPE	SELECTOR	0	Electrode Type
STRIPPING	TOGGLE	F	Used for Stripping
POLARITY	TOGGLE	F	Signal Polarity
LINEFREQ	IQUANT	60	Line Frequency (Hz)
INTPERIOD	QUANT	3.3334E-005	Integration Period (s)
SEQUENCER	TOGGLE	TRUE	Run as Sequence
PSTATMODEL	IQUANT	4	Pstat Model
PSTATSECTION	LABEL	REF600-24079	Pstat Section
PSTATSERIALNO	LABEL	24079	Pstat Serial Number
CTRLMODE	IQUANT	1	Control Mode
ELECTROMETER	IQUANT	0	RE=0 or CS=1
IESTAB	IQUANT	2	I/E Stability
CASPEED	IQUANT	6	Control Amp Speed
CONVENTION	IQUANT	1	Current Convention
ICHRANGE	IQUANT	2	Ich Range
ICHRANGEMODE	TOGGLE	F	Ich Auto Range
ICHOFFSETENABLE	TOGGLE	F	Ich Offset Enable
ICHOFFSET	QUANT	0	Ich Offset (V)
ICHFILTER	IQUANT	2	Ich Filter
VCHRANGE	IQUANT	2	Vch Range
VCHRANGEMODE	TOGGLE	F	Vch Auto Range
VCHOFFSETENABLE	TOGGLE	F	Vch Offset Enable
VCHOFFSET	QUANT	0	Vch Offset (V)
VCHFILTER	IQUANT	2	Vch Filter
ACHRANGE	IQUANT	2	Ach Range
ACHOFFSETENABLE	TOGGLE	F	Ach Offset Enable
ACHOFFSET	QUANT	0	Ach Offset (V)
ACHFILTER	IQUANT	1	Ach Filter
IERANGELOWERLIMIT	IQUANT	1	I/E Range Lower Limit
IERANGEMODE	TOGGLE	F	I/E AutoRange
IERANGE	IQUANT	6	I/E Range
POSFEEDENABLE	TOGGLE	F	Positive Feedback IR Comp
POSFEEDRESISTANCE	QUANT	0	Positive Feedback Resistance (ohm)
ACHSELECT	IQUANT	0	Ach Select
SENSECABLEID	IQUANT	13	Sense Cable ID
PWRCABLEID	IQUANT	13	Power Cable ID
DCCALDATE	LABEL	6/30/2020	DC Calibration Date
ACCALDATE	LABEL	6/30/2020	AC Calibration Date
THERMOSELECT	IQUANT	1	Thermo Select
FRAMEWORKVERSION	LABEL	7.8.2	Framework Version
INSTRUMENTVERSION	LABEL	4.40	Instrument Version
CURVE	TABLE	101
	Pt	T	Vfwd	Vrev	Vstep	Ifwd	Irev	Idif	Sig	Ach	IERange	Over	Temp
	#	s	V	V	V	A	A	A	V	V	#	bits	deg C
	0	0.1	-3.25004E-001	-3.74952E-001	-3.49978E-001	-6.47757E-009	-3.43748E-008	2.78972E-008	-3.75000E-001	4.09539E-004	6	..........a	-327.68
	1	0.2	-3.22930E-001	-3.72994E-001	-3.47962E-001	5.66297E-009	-2.99269E-008	3.55899E-008	-3.73000E-001	3.92206E-004	6	..........a	-327.68
	2	0.3	-3.20993E-001	-3.70841E-001	-3.45917E-001	8.11162E-009	-2.82777E-008	3.63893E-008	-3.71000E-001	3.85873E-004	6	..........a	-327.68
	3	0.4	-3.19002E-001	-3.69102E-001	-3.44052E-001	9.09674E-009	-2.72709E-008	3.63676E-008	-3.69000E-001	3.93206E-004	6	..........a	-327.68
	4	0.5	-3.16961E-001	-3.66963E-001	-3.41962E-001	9.88284E-009	-2.65921E-008	3.64750E-008	-3.67000E-001	3.81539E-004	6	..........a	-327.68
	5	0.6	-3.14875E-001	-3.65034E-001	-3.39955E-001	1.06246E-008	-2.62974E-008	3.69220E-008	-3.65000E-001	3.97706E-004	6	..........a	-327.68
	6	0.7	-3.13038E-001	-3.62855E-001	-3.37947E-001	1.11727E-008	-2.55773E-008	3.67500E-008	-3.63000E-001	3.98539E-004	6	..........a	-327.68
	7	0.8	-3.10968E-001	-3.61047E-001	-3.36008E-001	1.16014E-008	-2.53536E-008	3.69550E-008	-3.61000E-001	3.98373E-004	6	..........a	-327.68
	8	0.9	-3.08990E-001	-3.58929E-001	-3.33959E-001	1.21951E-008	-2.47996E-008	3.69947E-008	-3.59000E-001	4.00373E-004	6	..........a	-327.68
	9	1	-3.06888E-001	-3.57044E-001	-3.31966E-001	1.27202E-008	-2.46859E-008	3.74061E-008	-3.57000E-001	4.05206E-004	6	..........a	-327.68
	10	1.1	-3.05045E-001	-3.54903E-001	-3.29974E-001	1.33229E-008	-2.46295E-008	3.79525E-008	-3.55000E-001	4.09539E-004	6	..........a	-327.68
	11	1.2	-3.02986E-001	-3.53040E-001	-3.28013E-001	1.40270E-008	-2.42418E-008	3.82689E-008	-3.53000E-001	3.94539E-004	6	..........a	-327.68
	12	1.3	-3.01023E-001	-3.50946E-001	-3.25985E-001	1.45748E-008	-2.42958E-008	3.88706E-008	-3.51000E-001	3.99206E-004	6	..........a	-327.68
	13	1.4	-2.98913E-001	-3.49008E-001	-3.23961E-001	1.51969E-008	-2.43155E-008	3.95124E-008	-3.49000E-001	4.04539E-004	6	..........a	-327.68
	14	1.5	-2.97009E-001	-3.46930E-001	-3.21969E-001	1.56902E-008	-2.42582E-008	3.99484E-008	-3.47000E-001	4.07039E-004	6	..........a	-327.68
	15	1.6	-2.94964E-001	-3.45110E-001	-3.20037E-001	1.65037E-008	-2.43532E-008	4.08569E-008	-3.45000E-001	3.96206E-004	6	..........a	-327.68
	16	1.7	-2.92924E-001	-3.42925E-001	-3.17924E-001	1.73788E-008	-2.42268E-008	4.16056E-008	-3.43000E-001	4.00206E-004	6	..........a	-327.68
	17	1.8	-2.90846E-001	-3.41024E-001	-3.15935E-001	1.80495E-008	-2.44702E-008	4.25197E-008	-3.41000E-001	3.96706E-004	6	..........a	-327.68
	18	1.9	-2.89058E-001	-3.38860E-001	-3.13959E-001	1.90253E-008	-2.45829E-008	4.36082E-008	-3.39000E-001	3.99539E-004	6	..........a	-327.68
	19	2	-2.86939E-001	-3.37052E-001	-3.11996E-001	2.01008E-008	-2.48506E-008	4.49514E-008	-3.37000E-001	3.95706E-004	6	..........a	-327.68
	20	2.1	-2.85016E-001	-3.34929E-001	-3.09972E-001	2.11853E-008	-2.51676E-008	4.63529E-008	-3.35000E-001	4.08539E-004	6	..........a	-327.68
	21	2.2	-2.82866E-001	-3.33027E-001	-3.07946E-001	2.22451E-008	-2.55580E-008	4.78031E-008	-3.33000E-001	4.07206E-004	6	..........a	-327.68
	22	2.3	-2.81069E-001	-3.30881E-001	-3.05975E-001	2.36293E-008	-2.61481E-008	4.97773E-008	-3.31000E-001	3.93873E-004	6	..........a	-327.68
	23	2.4	-2.78951E-001	-3.29030E-001	-3.03991E-001	2.48951E-008	-2.64978E-008	5.13929E-008	-3.29000E-001	4.03539E-004	6	..........a	-327.68
	24	2.5	-2.77027E-001	-3.26943E-001	-3.01985E-001	2.63543E-008	-2.72135E-008	5.35678E-008	-3.27000E-001	4.13373E-004	6	..........a	-327.68
	25	2.6	-2.74914E-001	-3.25014E-001	-2.99964E-001	2.76731E-008	-2.79093E-008	5.55824E-008	-3.25000E-001	4.10039E-004	6	..........a	-327.68
	26	2.7	-2.73006E-001	-3.22922E-001	-2.97964E-001	2.89736E-008	-2.85444E-008	5.75180E-008	-3.23000E-001	4.16873E-004	6	..........a	-327.68
	27	2.8	-2.70950E-001	-3.20964E-001	-2.95957E-001	3.06838E-008	-2.95265E-008	6.02103E-008	-3.21000E-001	4.04873E-004	6	..........a	-327.68
	28	2.9	-2.68991E-001	-3.18975E-001	-2.93983E-001	3.21343E-008	-3.04930E-008	6.26273E-008	-3.19000E-001	4.24706E-004	6	..........a	-327.68
	29	3	-2.66814E-001	-3.16999E-001	-2.91907E-001	3.38462E-008	-3.15461E-008	6.53923E-008	-3.17000E-001	4.10039E-004	6	..........a	-327.68
	30	3.1	-2.65073E-001	-3.14894E-001	-2.89983E-001	3.54721E-008	-3.26309E-008	6.81030E-008	-3.15000E-001	4.12039E-004	6	..........a	-327.68
	31	3.2	-2.62932E-001	-3.13042E-001	-2.87987E-001	3.69376E-008	-3.39474E-008	7.08850E-008	-3.13000E-001	4.09039E-004	6	..........a	-327.68
	32	3.3	-2.61007E-001	-3.10935E-001	-2.85971E-001	3.84311E-008	-3.51062E-008	7.35374E-008	-3.11000E-001	4.12039E-004	6	..........a	-327.68
	33	3.4	-2.58866E-001	-3.09023E-001	-2.83944E-001	4.00560E-008	-3.66131E-008	7.66691E-008	-3.09000E-001	4.07206E-004	6	..........a	-327.68
	34	3.5	-2.57020E-001	-3.06895E-001	-2.81957E-001	4.13145E-008	-3.79292E-008	7.92437E-008	-3.07000E-001	4.10373E-004	6	..........a	-327.68
	35	3.6	-2.54960E-001	-3.05058E-001	-2.80009E-001	4.24463E-008	-3.92257E-008	8.16721E-008	-3.05000E-001	4.17206E-004	6	..........a	-327.68
	36	3.7	-2.53040E-001	-3.02962E-001	-2.78001E-001	4.40118E-008	-4.06726E-008	8.46844E-008	-3.03000E-001	4.18706E-004	6	..........a	-327.68
	37	3.8	-2.50905E-001	-3.01036E-001	-2.75970E-001	4.47516E-008	-4.22348E-008	8.69864E-008	-3.01000E-001	4.20039E-004	6	..........a	-327.68
	38	3.9	-2.48999E-001	-2.98942E-001	-2.73970E-001	4.54807E-008	-4.38150E-008	8.92957E-008	-2.99000E-001	4.16206E-004	6	..........a	-327.68
	39	4	-2.46937E-001	-2.97010E-001	-2.71974E-001	4.62655E-008	-4.51382E-008	9.14036E-008	-2.97000E-001	4.17706E-004	6	..........a	-327.68
	40	4.1	-2.44983E-001	-2.94928E-001	-2.69955E-001	4.67655E-008	-4.64590E-008	9.32245E-008	-2.95000E-001	4.19206E-004	6	..........a	-327.68
	41	4.2	-2.42835E-001	-2.92986E-001	-2.67910E-001	4.70286E-008	-4.76798E-008	9.47084E-008	-2.93000E-001	4.08206E-004	6	..........a	-327.68
	42	4.3	-2.41088E-001	-2.90853E-001	-2.65970E-001	4.72539E-008	-4.88713E-008	9.61252E-008	-2.91000E-001	4.16539E-004	6	..........a	-327.68
	43	4.4	-2.38911E-001	-2.89043E-001	-2.63977E-001	4.72276E-008	-4.99038E-008	9.71314E-008	-2.89000E-001	4.20206E-004	6	..........a	-327.68
	44	4.5	-2.37015E-001	-2.86916E-001	-2.61965E-001	4.69739E-008	-5.07509E-008	9.77248E-008	-2.87000E-001	4.16539E-004	6	..........a	-327.68
	45	4.6	-2.34854E-001	-2.85034E-001	-2.59944E-001	4.63775E-008	-5.14073E-008	9.77848E-008	-2.85000E-001	4.19706E-004	6	..........a	-327.68
	46	4.7	-2.33008E-001	-2.82878E-001	-2.57943E-001	4.60541E-008	-5.20044E-008	9.80585E-008	-2.83000E-001	4.21039E-004	6	..........a	-327.68
	47	4.8	-2.30918E-001	-2.81067E-001	-2.55992E-001	4.53220E-008	-5.22371E-008	9.75591E-008	-2.81000E-001	4.17706E-004	6	..........a	-327.68
	48	4.9	-2.28997E-001	-2.78946E-001	-2.53971E-001	4.48039E-008	-5.26258E-008	9.74297E-008	-2.79000E-001	4.14206E-004	6	..........a	-327.68
	49	5	-2.26886E-001	-2.77024E-001	-2.51955E-001	4.38415E-008	-5.23817E-008	9.62232E-008	-2.77000E-001	4.25706E-004	6	..........a	-327.68
	50	5.1	-2.24989E-001	-2.74933E-001	-2.49961E-001	4.28414E-008	-5.22704E-008	9.51118E-008	-2.75000E-001	4.21039E-004	6	..........a	-327.68
	51	5.2	-2.22923E-001	-2.73008E-001	-2.47966E-001	4.19499E-008	-5.17043E-008	9.36543E-008	-2.73000E-001	4.17706E-004	6	..........a	-327.68
	52	5.3	-2.20983E-001	-2.70934E-001	-2.45959E-001	4.06738E-008	-5.12699E-008	9.19437E-008	-2.71000E-001	4.20039E-004	6	..........a	-327.68
	53	5.4	-2.18927E-001	-2.68972E-001	-2.43949E-001	3.97376E-008	-5.03412E-008	9.00788E-008	-2.69000E-001	4.16206E-004	6	..........a	-327.68
	54	5.5	-2.17111E-001	-2.66834E-001	-2.41972E-001	3.87492E-008	-4.95137E-008	8.82629E-008	-2.67000E-001	4.21373E-004	6	..........a	-327.68
	55	5.6	-2.14907E-001	-2.65102E-001	-2.40004E-001	3.74550E-008	-4.85679E-008	8.60229E-008	-2.65000E-001	4.17706E-004	6	..........a	-327.68
	56	5.7	-2.12988E-001	-2.62938E-001	-2.37963E-001	3.64392E-008	-4.71651E-008	8.36043E-008	-2.63000E-001	4.30706E-004	6	..........a	-327.68
	57	5.8	-2.10858E-001	-2.61040E-001	-2.35949E-001	3.52147E-008	-4.56866E-008	8.09013E-008	-2.61000E-001	4.14373E-004	6	..........a	-327.68
	58	5.9	-2.09018E-001	-2.58885E-001	-2.33952E-001	3.43840E-008	-4.42024E-008	7.85863E-008	-2.59000E-001	4.14873E-004	6	..........a	-327.68
	59	6	-2.06922E-001	-2.57035E-001	-2.31979E-001	3.32221E-008	-4.25888E-008	7.58110E-008	-2.57000E-001	4.24206E-004	6	..........a	-327.68
	60	6.1	-2.05014E-001	-2.54943E-001	-2.29979E-001	3.22864E-008	-4.11460E-008	7.34323E-008	-2.55000E-001	4.13206E-004	6	..........a	-327.68
	61	6.2	-2.02878E-001	-2.53004E-001	-2.27941E-001	3.11986E-008	-3.95094E-008	7.07080E-008	-2.53000E-001	4.16706E-004	6	..........a	-327.68
	62	6.3	-2.01037E-001	-2.50911E-001	-2.25974E-001	3.01254E-008	-3.77092E-008	6.78346E-008	-2.51000E-001	4.09706E-004	6	..........a	-327.68
	63	6.4	-1.98940E-001	-2.49010E-001	-2.23975E-001	2.93530E-008	-3.61107E-008	6.54637E-008	-2.49000E-001	4.13373E-004	6	..........a	-327.68
	64	6.5	-1.97008E-001	-2.46951E-001	-2.21979E-001	2.83955E-008	-3.44961E-008	6.28917E-008	-2.47000E-001	4.00373E-004	6	..........a	-327.68
	65	6.6	-1.94929E-001	-2.44974E-001	-2.19951E-001	2.77708E-008	-3.27446E-008	6.05154E-008	-2.45000E-001	4.02706E-004	6	..........a	-327.68
	66	6.7	-1.92981E-001	-2.42836E-001	-2.17908E-001	2.69683E-008	-3.13504E-008	5.83188E-008	-2.43000E-001	4.09706E-004	6	..........a	-327.68
	67	6.8	-1.90949E-001	-2.41088E-001	-2.16018E-001	2.62099E-008	-2.96392E-008	5.58491E-008	-2.41000E-001	4.13873E-004	6	..........a	-327.68
	68	6.9	-1.88995E-001	-2.38911E-001	-2.13953E-001	2.55002E-008	-2.82100E-008	5.37102E-008	-2.39000E-001	4.12373E-004	6	..........a	-327.68
	69	7	-1.86849E-001	-2.36986E-001	-2.11918E-001	2.48831E-008	-2.68282E-008	5.17112E-008	-2.37000E-001	4.05539E-004	6	..........a	-327.68
	70	7.1	-1.85028E-001	-2.34853E-001	-2.09940E-001	2.42750E-008	-2.55137E-008	4.97887E-008	-2.35000E-001	4.11039E-004	6	..........a	-327.68
	71	7.2	-1.82906E-001	-2.33019E-001	-2.07962E-001	2.35606E-008	-2.42668E-008	4.78274E-008	-2.33000E-001	4.07539E-004	6	..........a	-327.68
	72	7.3	-1.81017E-001	-2.30944E-001	-2.05980E-001	2.34016E-008	-2.32240E-008	4.66256E-008	-2.31000E-001	4.07539E-004	6	..........a	-327.68
	73	7.4	-1.78880E-001	-2.29019E-001	-2.03949E-001	2.28598E-008	-2.21509E-008	4.50107E-008	-2.29000E-001	4.08373E-004	6	..........a	-327.68
	74	7.5	-1.77016E-001	-2.26894E-001	-2.01955E-001	2.24494E-008	-2.11584E-008	4.36079E-008	-2.27000E-001	4.12873E-004	6	..........a	-327.68
	75	7.6	-1.74944E-001	-2.25014E-001	-1.99979E-001	2.20907E-008	-2.01396E-008	4.22304E-008	-2.25000E-001	4.16539E-004	6	..........a	-327.68
	76	7.7	-1.73019E-001	-2.22931E-001	-1.97975E-001	2.17010E-008	-1.93785E-008	4.10796E-008	-2.23000E-001	4.12873E-004	6	..........a	-327.68
	77	7.8	-1.70907E-001	-2.20975E-001	-1.95941E-001	2.13873E-008	-1.86661E-008	4.00534E-008	-2.21000E-001	4.08539E-004	6	..........a	-327.68
	78	7.9	-1.68988E-001	-2.18928E-001	-1.93958E-001	2.12270E-008	-1.79800E-008	3.92070E-008	-2.19000E-001	4.03373E-004	6	..........a	-327.68
	79	8	-1.66944E-001	-2.17099E-001	-1.92022E-001	2.09919E-008	-1.73496E-008	3.83415E-008	-2.17000E-001	4.05206E-004	6	..........a	-327.68
	80	8.1	-1.64902E-001	-2.14929E-001	-1.89915E-001	2.08989E-008	-1.66719E-008	3.75708E-008	-2.15000E-001	4.10873E-004	6	..........a	-327.68
	81	8.2	-1.62835E-001	-2.12997E-001	-1.87916E-001	2.05122E-008	-1.60011E-008	3.65133E-008	-2.13000E-001	4.05706E-004	6	..........a	-327.68
	82	8.3	-1.61002E-001	-2.10865E-001	-1.85934E-001	2.04498E-008	-1.54757E-008	3.59256E-008	-2.11000E-001	3.96373E-004	6	..........a	-327.68
	83	8.4	-1.58935E-001	-2.09009E-001	-1.83972E-001	2.03308E-008	-1.51257E-008	3.54565E-008	-2.09000E-001	4.07873E-004	6	..........a	-327.68
	84	8.5	-1.57012E-001	-2.06919E-001	-1.81966E-001	2.03752E-008	-1.46183E-008	3.49935E-008	-2.07000E-001	4.00039E-004	6	..........a	-327.68
	85	8.6	-1.54874E-001	-2.04979E-001	-1.79926E-001	2.00778E-008	-1.43312E-008	3.44090E-008	-2.05000E-001	4.02039E-004	6	..........a	-327.68
	86	8.7	-1.53061E-001	-2.02879E-001	-1.77970E-001	1.99555E-008	-1.39855E-008	3.39410E-008	-2.03000E-001	4.07539E-004	6	..........a	-327.68
	87	8.8	-1.50935E-001	-2.01030E-001	-1.75982E-001	2.00001E-008	-1.38242E-008	3.38243E-008	-2.01000E-001	4.04039E-004	6	..........a	-327.68
	88	8.9	-1.49003E-001	-1.98944E-001	-1.73974E-001	1.98151E-008	-1.34328E-008	3.32479E-008	-1.99000E-001	3.96706E-004	6	..........a	-327.68
	89	9	-1.46901E-001	-1.96990E-001	-1.71945E-001	1.99828E-008	-1.32094E-008	3.31922E-008	-1.97000E-001	4.09039E-004	6	..........a	-327.68
	90	9.1	-1.44987E-001	-1.94915E-001	-1.69951E-001	1.97838E-008	-1.30491E-008	3.28328E-008	-1.95000E-001	4.01873E-004	6	..........a	-327.68
	91	9.2	-1.42936E-001	-1.92975E-001	-1.67956E-001	1.97071E-008	-1.25367E-008	3.22438E-008	-1.93000E-001	4.14706E-004	6	..........a	-327.68
	92	9.3	-1.40978E-001	-1.90945E-001	-1.65961E-001	1.97178E-008	-1.24417E-008	3.21594E-008	-1.91000E-001	4.10206E-004	6	..........a	-327.68
	93	9.4	-1.38819E-001	-1.88966E-001	-1.63893E-001	1.97888E-008	-1.20646E-008	3.18534E-008	-1.89000E-001	4.09206E-004	6	..........a	-327.68
	94	9.5	-1.37064E-001	-1.86836E-001	-1.61950E-001	1.97808E-008	-1.21260E-008	3.19067E-008	-1.87000E-001	4.00873E-004	6	..........a	-327.68
	95	9.6	-1.34946E-001	-1.85042E-001	-1.59994E-001	1.96548E-008	-1.19523E-008	3.16070E-008	-1.85000E-001	4.08206E-004	6	..........a	-327.68
	96	9.7	-1.32986E-001	-1.82924E-001	-1.57955E-001	1.96794E-008	-1.16899E-008	3.13693E-008	-1.83000E-001	4.07873E-004	6	..........a	-327.68
	97	9.8	-1.30855E-001	-1.80998E-001	-1.55926E-001	1.98561E-008	-1.18009E-008	3.16570E-008	-1.81000E-001	4.17373E-004	6	..........a	-327.68
	98	9.9	-1.29008E-001	-1.78881E-001	-1.53944E-001	1.97924E-008	-1.15349E-008	3.13273E-008	-1.79000E-001	4.05373E-004	6	..........a	-327.68
	99	10	-1.26942E-001	-1.77022E-001	-1.51982E-001	1.98364E-008	-1.15212E-008	3.13577E-008	-1.77000E-001	4.03373E-004	6	..........a	-327.68
	100	10.1	-1.25020E-001	-1.74946E-001	-1.49983E-001	1.96694E-008	-1.14802E-008	3.11496E-008	-1.75000E-001	3.94206E-004	6	..........a	-327.68
