EXPLAIN
TAG	SQUARE_WAVE
TITLE	LABEL	Square Wave Voltammetry	Test Identifier
DATE	LABEL	8/31/2020	Date
TIME	LABEL	14:42:45	Time
NOTES	NOTES	1	Notes...
	
PSTAT	PSTAT	REF600-24079	Potentiostat
VINIT	QUANT	-3.50000E-001	Initial E (V)
VFINAL	QUANT	-1.50000E-001	Final E (V)
STEPSIZE	QUANT	2.00000E+000	Step Size (mV)
TIMERRES	QUANT	3.33340E-005	&Timer Resolution
FREQUENCY	QUANT	5.00000E+000	Frequency (Hz)
PULSESIZE	QUANT	2.50000E+001	Pulse Size E (mV)
PULSEON	QUANT	2.00000E-001	Pulse &Time (s)
NOISEREJECT	TOGGLE	F	Noise Rejection
AREA	QUANT	2.00000E-002	Sample Area (cm^2)
IMODE	SELECTOR	1	I/E Range Mode
IRANGE	QUANT	1.00000E-003	Max Current (mA)
EQDELAY	IQUANT	10	Equil. Time (s)
IRCOMP	SELECTOR	0	IRComp
PFCOR	QUANT	5.00000E+001	PF Corr. (ohm)
CYCLES	IQUANT	101	C&ycles (#)
ELECTRODETYPE	SELECTOR	0	Electrode Type
STRIPPING	TOGGLE	F	Used for Stripping
POLARITY	TOGGLE	F	Signal Polarity
LINEFREQ	IQUANT	60	Line Frequency (Hz)
INTPERIOD	QUANT	3.3334E-005	Integration Period (s)
SEQUENCER	TOGGLE	TRUE	Run as Sequence
PSTATMODEL	IQUANT	4	Pstat Model
PSTATSECTION	LABEL	REF600-24079	Pstat Section
PSTATSERIALNO	LABEL	24079	Pstat Serial Number
CTRLMODE	IQUANT	1	Control Mode
ELECTROMETER	IQUANT	0	RE=0 or CS=1
IESTAB	IQUANT	2	I/E Stability
CASPEED	IQUANT	6	Control Amp Speed
CONVENTION	IQUANT	1	Current Convention
ICHRANGE	IQUANT	2	Ich Range
ICHRANGEMODE	TOGGLE	F	Ich Auto Range
ICHOFFSETENABLE	TOGGLE	F	Ich Offset Enable
ICHOFFSET	QUANT	0	Ich Offset (V)
ICHFILTER	IQUANT	2	Ich Filter
VCHRANGE	IQUANT	2	Vch Range
VCHRANGEMODE	TOGGLE	F	Vch Auto Range
VCHOFFSETENABLE	TOGGLE	F	Vch Offset Enable
VCHOFFSET	QUANT	0	Vch Offset (V)
VCHFILTER	IQUANT	2	Vch Filter
ACHRANGE	IQUANT	2	Ach Range
ACHOFFSETENABLE	TOGGLE	F	Ach Offset Enable
ACHOFFSET	QUANT	0	Ach Offset (V)
ACHFILTER	IQUANT	1	Ach Filter
IERANGELOWERLIMIT	IQUANT	1	I/E Range Lower Limit
IERANGEMODE	TOGGLE	F	I/E AutoRange
IERANGE	IQUANT	6	I/E Range
POSFEEDENABLE	TOGGLE	F	Positive Feedback IR Comp
POSFEEDRESISTANCE	QUANT	0	Positive Feedback Resistance (ohm)
ACHSELECT	IQUANT	0	Ach Select
SENSECABLEID	IQUANT	13	Sense Cable ID
PWRCABLEID	IQUANT	13	Power Cable ID
DCCALDATE	LABEL	6/30/2020	DC Calibration Date
ACCALDATE	LABEL	6/30/2020	AC Calibration Date
THERMOSELECT	IQUANT	1	Thermo Select
FRAMEWORKVERSION	LABEL	7.8.2	Framework Version
INSTRUMENTVERSION	LABEL	4.40	Instrument Version
CURVE	TABLE	101
	Pt	T	Vfwd	Vrev	Vstep	Ifwd	Irev	Idif	Sig	Ach	IERange	Over	Temp
	#	s	V	V	V	A	A	A	V	V	#	bits	deg C
	0	0.2	-3.24804E-001	-3.74862E-001	-3.49833E-001	-1.35771E-008	-3.69701E-008	2.33930E-008	-3.75000E-001	3.76873E-004	6	..........a	-327.68
	1	0.4	-3.22842E-001	-3.72864E-001	-3.47853E-001	-5.34326E-009	-3.35849E-008	2.82416E-008	-3.73000E-001	3.74706E-004	6	..........a	-327.68
	2	0.6	-3.20852E-001	-3.70791E-001	-3.45821E-001	-3.61571E-009	-3.22030E-008	2.85873E-008	-3.71000E-001	3.82539E-004	6	..........a	-327.68
	3	0.8	-3.18882E-001	-3.68845E-001	-3.43863E-001	-2.63025E-009	-3.12631E-008	2.86328E-008	-3.69000E-001	3.76456E-004	6	..........a	-327.68
	4	1	-3.16758E-001	-3.66887E-001	-3.41823E-001	-1.92683E-009	-3.04450E-008	2.85181E-008	-3.67000E-001	3.76206E-004	6	..........a	-327.68
	5	1.2	-3.14854E-001	-3.64835E-001	-3.39845E-001	-1.38609E-009	-2.98155E-008	2.84294E-008	-3.65000E-001	3.62456E-004	6	..........a	-327.68
	6	1.4	-3.12859E-001	-3.62822E-001	-3.37840E-001	-8.57026E-010	-2.93360E-008	2.84790E-008	-3.63000E-001	3.67123E-004	6	..........a	-327.68
	7	1.6	-3.10853E-001	-3.60849E-001	-3.35851E-001	-3.07956E-010	-2.89318E-008	2.86238E-008	-3.61000E-001	3.67123E-004	6	..........a	-327.68
	8	1.8	-3.08790E-001	-3.58857E-001	-3.33824E-001	2.36113E-010	-2.83789E-008	2.86150E-008	-3.59000E-001	3.59539E-004	6	..........a	-327.68
	9	2	-3.06836E-001	-3.56796E-001	-3.31816E-001	7.11674E-010	-2.79115E-008	2.86231E-008	-3.57000E-001	3.64206E-004	6	..........a	-327.68
	10	2.2	-3.04848E-001	-3.54823E-001	-3.29836E-001	1.10989E-009	-2.75609E-008	2.86708E-008	-3.55000E-001	3.62539E-004	6	..........a	-327.68
	11	2.4	-3.02873E-001	-3.52862E-001	-3.27868E-001	1.50811E-009	-2.71517E-008	2.86598E-008	-3.53000E-001	3.60539E-004	6	..........a	-327.68
	12	2.6	-3.00851E-001	-3.50859E-001	-3.25855E-001	1.94583E-009	-2.68428E-008	2.87887E-008	-3.51000E-001	3.58123E-004	6	..........a	-327.68
	13	2.8	-2.98838E-001	-3.48855E-001	-3.23847E-001	2.42289E-009	-2.64905E-008	2.89133E-008	-3.49000E-001	3.60706E-004	6	..........a	-327.68
	14	3	-2.96860E-001	-3.46845E-001	-3.21853E-001	2.81627E-009	-2.62844E-008	2.91007E-008	-3.47000E-001	3.71039E-004	6	..........a	-327.68
	15	3.2	-2.94868E-001	-3.44859E-001	-3.19863E-001	3.37268E-009	-2.60641E-008	2.94367E-008	-3.45000E-001	3.63289E-004	6	..........a	-327.68
	16	3.4	-2.92742E-001	-3.42861E-001	-3.17801E-001	3.91741E-009	-2.57552E-008	2.96726E-008	-3.43000E-001	3.66706E-004	6	..........a	-327.68
	17	3.6	-2.90776E-001	-3.40800E-001	-3.15788E-001	4.40048E-009	-2.56535E-008	3.00540E-008	-3.41000E-001	3.62539E-004	6	..........a	-327.68
	18	3.8	-2.88886E-001	-3.38823E-001	-3.13855E-001	4.89554E-009	-2.54723E-008	3.03679E-008	-3.39000E-001	3.72623E-004	6	..........a	-327.68
	19	4	-2.86856E-001	-3.36849E-001	-3.11852E-001	5.64964E-009	-2.55142E-008	3.11638E-008	-3.37000E-001	3.70206E-004	6	..........a	-327.68
	20	4.2	-2.84785E-001	-3.34865E-001	-3.09825E-001	6.24421E-009	-2.52603E-008	3.15045E-008	-3.35000E-001	3.63623E-004	6	..........a	-327.68
	21	4.4	-2.82773E-001	-3.32804E-001	-3.07789E-001	6.99514E-009	-2.52470E-008	3.22421E-008	-3.33000E-001	3.63039E-004	6	..........a	-327.68
	22	4.6	-2.80862E-001	-3.30817E-001	-3.05839E-001	7.74474E-009	-2.53090E-008	3.30537E-008	-3.31000E-001	3.58039E-004	6	..........a	-327.68
	23	4.8	-2.78867E-001	-3.28858E-001	-3.03863E-001	8.41499E-009	-2.52938E-008	3.37088E-008	-3.29000E-001	3.67039E-004	6	..........a	-327.68
	24	5	-2.76820E-001	-3.26863E-001	-3.01841E-001	9.18075E-009	-2.54138E-008	3.45946E-008	-3.27000E-001	3.67123E-004	6	..........a	-327.68
	25	5.2	-2.74815E-001	-3.24836E-001	-2.99825E-001	9.96702E-009	-2.54118E-008	3.53788E-008	-3.25000E-001	3.68289E-004	6	..........a	-327.68
	26	5.4	-2.72844E-001	-3.22840E-001	-2.97842E-001	1.09186E-008	-2.56478E-008	3.65665E-008	-3.23000E-001	3.65206E-004	6	..........a	-327.68
	27	5.6	-2.70863E-001	-3.20855E-001	-2.95859E-001	1.17024E-008	-2.58204E-008	3.75228E-008	-3.21000E-001	3.60456E-004	6	..........a	-327.68
	28	5.8	-2.68849E-001	-3.18892E-001	-2.93871E-001	1.24207E-008	-2.61142E-008	3.85349E-008	-3.19000E-001	3.62206E-004	6	..........a	-327.68
	29	6	-2.66762E-001	-3.16740E-001	-2.91751E-001	1.34750E-008	-2.63829E-008	3.98579E-008	-3.17000E-001	3.58789E-004	6	..........a	-327.68
	30	6.2	-2.64839E-001	-3.14850E-001	-2.89844E-001	1.42546E-008	-2.67497E-008	4.10042E-008	-3.15000E-001	3.71456E-004	6	..........a	-327.68
	31	6.4	-2.62854E-001	-3.12857E-001	-2.87855E-001	1.51068E-008	-2.71200E-008	4.22269E-008	-3.13000E-001	3.62123E-004	6	..........a	-327.68
	32	6.6	-2.60760E-001	-3.10863E-001	-2.85811E-001	1.59321E-008	-2.74907E-008	4.34229E-008	-3.11000E-001	3.59956E-004	6	..........a	-327.68
	33	6.8	-2.58795E-001	-3.08802E-001	-2.83799E-001	1.66684E-008	-2.80898E-008	4.47582E-008	-3.09000E-001	3.67623E-004	6	..........a	-327.68
	34	7	-2.56823E-001	-3.06842E-001	-2.81832E-001	1.72279E-008	-2.85629E-008	4.57908E-008	-3.07000E-001	3.66289E-004	6	..........a	-327.68
	35	7.2	-2.54853E-001	-3.04862E-001	-2.79858E-001	1.78470E-008	-2.92445E-008	4.70915E-008	-3.05000E-001	3.68123E-004	6	..........a	-327.68
	36	7.4	-2.52824E-001	-3.02872E-001	-2.77848E-001	1.82477E-008	-2.97000E-008	4.79478E-008	-3.03000E-001	3.55706E-004	6	..........a	-327.68
	37	7.6	-2.50823E-001	-3.00857E-001	-2.75840E-001	1.88068E-008	-3.02943E-008	4.91011E-008	-3.01000E-001	3.67123E-004	6	..........a	-327.68
	38	7.8	-2.48859E-001	-2.98839E-001	-2.73849E-001	1.91117E-008	-3.08943E-008	5.00060E-008	-2.99000E-001	3.67539E-004	6	..........a	-327.68
	39	8	-2.46860E-001	-2.96859E-001	-2.71859E-001	1.92985E-008	-3.13856E-008	5.06841E-008	-2.97000E-001	3.57789E-004	6	..........a	-327.68
	40	8.2	-2.44852E-001	-2.94865E-001	-2.69859E-001	1.95764E-008	-3.18021E-008	5.13785E-008	-2.95000E-001	3.54706E-004	6	..........a	-327.68
	41	8.4	-2.42774E-001	-2.92739E-001	-2.67756E-001	1.97288E-008	-3.25786E-008	5.23073E-008	-2.93000E-001	3.58539E-004	6	..........a	-327.68
	42	8.6	-2.40827E-001	-2.90818E-001	-2.65822E-001	1.96744E-008	-3.29306E-008	5.26050E-008	-2.91000E-001	3.54873E-004	6	..........a	-327.68
	43	8.8	-2.38860E-001	-2.88868E-001	-2.63864E-001	1.96332E-008	-3.32610E-008	5.28942E-008	-2.89000E-001	3.52623E-004	6	..........a	-327.68
	44	9	-2.36805E-001	-2.86853E-001	-2.61829E-001	1.95187E-008	-3.37614E-008	5.32801E-008	-2.87000E-001	3.68123E-004	6	..........a	-327.68
	45	9.2	-2.34807E-001	-2.84781E-001	-2.59794E-001	1.94459E-008	-3.39309E-008	5.33768E-008	-2.85000E-001	3.47373E-004	6	..........a	-327.68
	46	9.4	-2.32822E-001	-2.82806E-001	-2.57814E-001	1.91699E-008	-3.40794E-008	5.32493E-008	-2.83000E-001	3.65789E-004	6	..........a	-327.68
	47	9.6	-2.30841E-001	-2.80863E-001	-2.55852E-001	1.88930E-008	-3.41638E-008	5.30567E-008	-2.81000E-001	3.60456E-004	6	..........a	-327.68
	48	9.8	-2.28774E-001	-2.78848E-001	-2.53811E-001	1.87025E-008	-3.40441E-008	5.27465E-008	-2.79000E-001	3.62956E-004	6	..........a	-327.68
	49	10	-2.26802E-001	-2.76837E-001	-2.51819E-001	1.83909E-008	-3.39571E-008	5.23480E-008	-2.77000E-001	3.71956E-004	6	..........a	-327.68
	50	10.2	-2.24843E-001	-2.74831E-001	-2.49837E-001	1.80145E-008	-3.37792E-008	5.17938E-008	-2.75000E-001	3.67373E-004	6	..........a	-327.68
	51	10.4	-2.22843E-001	-2.72847E-001	-2.47845E-001	1.75900E-008	-3.33303E-008	5.09203E-008	-2.73000E-001	3.70706E-004	6	..........a	-327.68
	52	10.6	-2.20829E-001	-2.70855E-001	-2.45842E-001	1.72976E-008	-3.28268E-008	5.01244E-008	-2.71000E-001	3.62289E-004	6	..........a	-327.68
	53	10.8	-2.18831E-001	-2.68851E-001	-2.43841E-001	1.69279E-008	-3.21735E-008	4.91014E-008	-2.69000E-001	3.73706E-004	6	..........a	-327.68
	54	11	-2.16800E-001	-2.66807E-001	-2.41804E-001	1.65677E-008	-3.14486E-008	4.80163E-008	-2.67000E-001	3.59539E-004	6	..........a	-327.68
	55	11.2	-2.14855E-001	-2.64845E-001	-2.39850E-001	1.61243E-008	-3.07117E-008	4.68360E-008	-2.65000E-001	3.75956E-004	6	..........a	-327.68
	56	11.4	-2.12793E-001	-2.62848E-001	-2.37821E-001	1.57366E-008	-2.99141E-008	4.56506E-008	-2.63000E-001	3.60539E-004	6	..........a	-327.68
	57	11.6	-2.10813E-001	-2.60786E-001	-2.35799E-001	1.54607E-008	-2.89328E-008	4.43935E-008	-2.61000E-001	3.69039E-004	6	..........a	-327.68
	58	11.8	-2.08822E-001	-2.58813E-001	-2.33818E-001	1.50927E-008	-2.80393E-008	4.31320E-008	-2.59000E-001	3.62456E-004	6	..........a	-327.68
	59	12	-2.06835E-001	-2.56834E-001	-2.31835E-001	1.48513E-008	-2.71034E-008	4.19547E-008	-2.57000E-001	3.68539E-004	6	..........a	-327.68
	60	12.2	-2.04751E-001	-2.54847E-001	-2.29799E-001	1.45786E-008	-2.60164E-008	4.05950E-008	-2.55000E-001	3.66039E-004	6	..........a	-327.68
	61	12.4	-2.02768E-001	-2.52809E-001	-2.27789E-001	1.40652E-008	-2.49481E-008	3.90133E-008	-2.53000E-001	3.69873E-004	6	..........a	-327.68
	62	12.6	-2.00799E-001	-2.50830E-001	-2.25814E-001	1.39272E-008	-2.40111E-008	3.79383E-008	-2.51000E-001	3.73373E-004	6	..........a	-327.68
	63	12.8	-1.98844E-001	-2.48849E-001	-2.23846E-001	1.36760E-008	-2.30605E-008	3.67365E-008	-2.49000E-001	3.63373E-004	6	..........a	-327.68
	64	13	-1.96790E-001	-2.46844E-001	-2.21817E-001	1.34963E-008	-2.22081E-008	3.57044E-008	-2.47000E-001	3.73789E-004	6	..........a	-327.68
	65	13.2	-1.94803E-001	-2.44842E-001	-2.19823E-001	1.31833E-008	-2.12436E-008	3.44269E-008	-2.45000E-001	3.74706E-004	6	..........a	-327.68
	66	13.4	-1.92833E-001	-2.42800E-001	-2.17816E-001	1.31719E-008	-2.04025E-008	3.35744E-008	-2.43000E-001	3.77539E-004	6	..........a	-327.68
	67	13.6	-1.90822E-001	-2.40835E-001	-2.15829E-001	1.28869E-008	-1.96641E-008	3.25510E-008	-2.41000E-001	3.79539E-004	6	..........a	-327.68
	68	13.8	-1.88641E-001	-2.38854E-001	-2.13748E-001	1.27402E-008	-1.88563E-008	3.15965E-008	-2.39000E-001	3.76289E-004	6	..........a	-327.68
	69	14	-1.86766E-001	-2.36792E-001	-2.11779E-001	1.25060E-008	-1.83698E-008	3.08758E-008	-2.37000E-001	3.78039E-004	6	..........a	-327.68
	70	14.2	-1.84819E-001	-2.34806E-001	-2.09812E-001	1.25045E-008	-1.75920E-008	3.00965E-008	-2.35000E-001	3.79706E-004	6	..........a	-327.68
	71	14.4	-1.82820E-001	-2.32823E-001	-2.07821E-001	1.23078E-008	-1.70112E-008	2.93191E-008	-2.33000E-001	3.73873E-004	6	..........a	-327.68
	72	14.6	-1.80694E-001	-2.30826E-001	-2.05760E-001	1.23203E-008	-1.64088E-008	2.87292E-008	-2.31000E-001	3.73289E-004	6	..........a	-327.68
	73	14.8	-1.78770E-001	-2.28749E-001	-2.03759E-001	1.22226E-008	-1.58806E-008	2.81032E-008	-2.29000E-001	3.63789E-004	6	..........a	-327.68
	74	15	-1.76782E-001	-2.26803E-001	-2.01792E-001	1.21625E-008	-1.53620E-008	2.75245E-008	-2.27000E-001	3.62373E-004	6	..........a	-327.68
	75	15.2	-1.74827E-001	-2.24834E-001	-1.99830E-001	1.21411E-008	-1.49675E-008	2.71086E-008	-2.25000E-001	3.68956E-004	6	..........a	-327.68
	76	15.4	-1.72761E-001	-2.22834E-001	-1.97797E-001	1.21338E-008	-1.46206E-008	2.67544E-008	-2.23000E-001	3.63539E-004	6	..........a	-327.68
	77	15.6	-1.70791E-001	-2.20807E-001	-1.95799E-001	1.21513E-008	-1.41839E-008	2.63352E-008	-2.21000E-001	3.67956E-004	6	..........a	-327.68
	78	15.8	-1.68824E-001	-2.18820E-001	-1.93822E-001	1.21215E-008	-1.40132E-008	2.61347E-008	-2.19000E-001	3.77123E-004	6	..........a	-327.68
	79	16	-1.66837E-001	-2.16843E-001	-1.91840E-001	1.20660E-008	-1.35778E-008	2.56438E-008	-2.17000E-001	3.74373E-004	6	..........a	-327.68
	80	16.2	-1.64605E-001	-2.14849E-001	-1.89727E-001	1.22091E-008	-1.33051E-008	2.55142E-008	-2.15000E-001	3.67539E-004	6	..........a	-327.68
	81	16.4	-1.62766E-001	-2.12663E-001	-1.87715E-001	1.21658E-008	-1.31156E-008	2.52814E-008	-2.13000E-001	3.82206E-004	6	..........a	-327.68
	82	16.6	-1.60839E-001	-2.10818E-001	-1.85829E-001	1.22250E-008	-1.27644E-008	2.49893E-008	-2.11000E-001	3.57373E-004	6	..........a	-327.68
	83	16.8	-1.58821E-001	-2.08826E-001	-1.83824E-001	1.22506E-008	-1.26469E-008	2.48975E-008	-2.09000E-001	3.70206E-004	6	..........a	-327.68
	84	17	-1.56672E-001	-2.06845E-001	-1.81758E-001	1.22678E-008	-1.23322E-008	2.46000E-008	-2.07000E-001	3.73373E-004	6	..........a	-327.68
	85	17.2	-1.54750E-001	-2.04738E-001	-1.79744E-001	1.24015E-008	-1.21946E-008	2.45961E-008	-2.05000E-001	3.67289E-004	6	..........a	-327.68
	86	17.4	-1.52823E-001	-2.02807E-001	-1.77815E-001	1.23567E-008	-1.20963E-008	2.44529E-008	-2.03000E-001	3.68456E-004	6	..........a	-327.68
	87	17.6	-1.50829E-001	-2.00833E-001	-1.75831E-001	1.24437E-008	-1.19583E-008	2.44019E-008	-2.01000E-001	3.68123E-004	6	..........a	-327.68
	88	17.8	-1.48743E-001	-1.98842E-001	-1.73793E-001	1.25057E-008	-1.16172E-008	2.41229E-008	-1.99000E-001	3.67039E-004	6	..........a	-327.68
	89	18	-1.46784E-001	-1.96801E-001	-1.71792E-001	1.26237E-008	-1.15189E-008	2.41426E-008	-1.97000E-001	3.69706E-004	6	..........a	-327.68
	90	18.2	-1.44820E-001	-1.94814E-001	-1.69817E-001	1.27207E-008	-1.13827E-008	2.41034E-008	-1.95000E-001	3.73123E-004	6	..........a	-327.68
	91	18.4	-1.42828E-001	-1.92832E-001	-1.67830E-001	1.27355E-008	-1.11932E-008	2.39287E-008	-1.93000E-001	3.67956E-004	6	..........a	-327.68
	92	18.6	-1.40791E-001	-1.90862E-001	-1.65827E-001	1.27625E-008	-1.10437E-008	2.38062E-008	-1.91000E-001	3.56373E-004	6	..........a	-327.68
	93	18.8	-1.38735E-001	-1.88694E-001	-1.63714E-001	1.28232E-008	-1.09501E-008	2.37734E-008	-1.89000E-001	3.59706E-004	6	..........a	-327.68
	94	19	-1.36805E-001	-1.86817E-001	-1.61811E-001	1.29224E-008	-1.07996E-008	2.37220E-008	-1.87000E-001	3.67456E-004	6	..........a	-327.68
	95	19.2	-1.34820E-001	-1.84830E-001	-1.59825E-001	1.30046E-008	-1.06388E-008	2.36433E-008	-1.85000E-001	3.77373E-004	6	..........a	-327.68
	96	19.4	-1.32670E-001	-1.82823E-001	-1.57746E-001	1.30014E-008	-1.05053E-008	2.35067E-008	-1.83000E-001	3.80123E-004	6	..........a	-327.68
	97	19.6	-1.30749E-001	-1.80759E-001	-1.55754E-001	1.31233E-008	-1.04326E-008	2.35558E-008	-1.81000E-001	3.68623E-004	6	..........a	-327.68
	98	19.8	-1.28767E-001	-1.78809E-001	-1.53788E-001	1.32696E-008	-1.03434E-008	2.36130E-008	-1.79000E-001	3.71789E-004	6	..........a	-327.68
	99	20	-1.26800E-001	-1.76822E-001	-1.51811E-001	1.32911E-008	-1.02307E-008	2.35218E-008	-1.77000E-001	3.75206E-004	6	..........a	-327.68
	100	20.2	-1.24731E-001	-1.74831E-001	-1.49781E-001	1.35005E-008	-1.00980E-008	2.35985E-008	-1.75000E-001	3.70789E-004	6	..........a	-327.68
