EXPLAIN
TAG	SQUARE_WAVE
TITLE	LABEL	Square Wave Voltammetry	Test Identifier
DATE	LABEL	8/25/2020	Date
TIME	LABEL	13:21:41	Time
NOTES	NOTES	1	Notes...
	
PSTAT	PSTAT	REF600-24079	Potentiostat
VINIT	QUANT	-3.50000E-001	Initial E (V)
VFINAL	QUANT	-1.50000E-001	Final E (V)
STEPSIZE	QUANT	2.00000E+000	Step Size (mV)
TIMERRES	QUANT	3.33340E-005	&Timer Resolution
FREQUENCY	QUANT	5.00000E+001	Frequency (Hz)
PULSESIZE	QUANT	2.50000E+001	Pulse Size E (mV)
PULSEON	QUANT	2.00000E-002	Pulse &Time (s)
NOISEREJECT	TOGGLE	F	Noise Rejection
AREA	QUANT	2.00000E-002	Sample Area (cm^2)
IMODE	SELECTOR	1	I/E Range Mode
IRANGE	QUANT	1.00000E-003	Max Current (mA)
EQDELAY	IQUANT	10	Equil. Time (s)
IRCOMP	SELECTOR	0	IRComp
PFCOR	QUANT	5.00000E+001	PF Corr. (ohm)
CYCLES	IQUANT	101	C&ycles (#)
ELECTRODETYPE	SELECTOR	0	Electrode Type
STRIPPING	TOGGLE	F	Used for Stripping
POLARITY	TOGGLE	F	Signal Polarity
LINEFREQ	IQUANT	60	Line Frequency (Hz)
INTPERIOD	QUANT	3.3334E-005	Integration Period (s)
SEQUENCER	TOGGLE	TRUE	Run as Sequence
PSTATMODEL	IQUANT	4	Pstat Model
PSTATSECTION	LABEL	REF600-24079	Pstat Section
PSTATSERIALNO	LABEL	24079	Pstat Serial Number
CTRLMODE	IQUANT	1	Control Mode
ELECTROMETER	IQUANT	0	RE=0 or CS=1
IESTAB	IQUANT	2	I/E Stability
CASPEED	IQUANT	6	Control Amp Speed
CONVENTION	IQUANT	1	Current Convention
ICHRANGE	IQUANT	2	Ich Range
ICHRANGEMODE	TOGGLE	F	Ich Auto Range
ICHOFFSETENABLE	TOGGLE	F	Ich Offset Enable
ICHOFFSET	QUANT	0	Ich Offset (V)
ICHFILTER	IQUANT	2	Ich Filter
VCHRANGE	IQUANT	2	Vch Range
VCHRANGEMODE	TOGGLE	F	Vch Auto Range
VCHOFFSETENABLE	TOGGLE	F	Vch Offset Enable
VCHOFFSET	QUANT	0	Vch Offset (V)
VCHFILTER	IQUANT	2	Vch Filter
ACHRANGE	IQUANT	2	Ach Range
ACHOFFSETENABLE	TOGGLE	F	Ach Offset Enable
ACHOFFSET	QUANT	0	Ach Offset (V)
ACHFILTER	IQUANT	1	Ach Filter
IERANGELOWERLIMIT	IQUANT	1	I/E Range Lower Limit
IERANGEMODE	TOGGLE	F	I/E AutoRange
IERANGE	IQUANT	6	I/E Range
POSFEEDENABLE	TOGGLE	F	Positive Feedback IR Comp
POSFEEDRESISTANCE	QUANT	0	Positive Feedback Resistance (ohm)
ACHSELECT	IQUANT	0	Ach Select
SENSECABLEID	IQUANT	13	Sense Cable ID
PWRCABLEID	IQUANT	13	Power Cable ID
DCCALDATE	LABEL	6/30/2020	DC Calibration Date
ACCALDATE	LABEL	6/30/2020	AC Calibration Date
THERMOSELECT	IQUANT	1	Thermo Select
FRAMEWORKVERSION	LABEL	7.8.2	Framework Version
INSTRUMENTVERSION	LABEL	4.40	Instrument Version
CURVE	TABLE	101
	Pt	T	Vfwd	Vrev	Vstep	Ifwd	Irev	Idif	Sig	Ach	IERange	Over	Temp
	#	s	V	V	V	A	A	A	V	V	#	bits	deg C
	0	0.02	-3.24896E-001	-3.73313E-001	-3.49105E-001	-6.76528E-009	9.65562E-007	-9.72327E-007	-3.75000E-001	4.00206E-004	6	..........a	-327.68
	1	0.04	-3.24755E-001	-3.71108E-001	-3.47931E-001	-9.60500E-007	8.97475E-007	-1.85797E-006	-3.73000E-001	4.09373E-004	6	..........a	-327.68
	2	0.06	-3.22696E-001	-3.69099E-001	-3.45898E-001	-9.54254E-007	9.02442E-007	-1.85670E-006	-3.71000E-001	4.10206E-004	6	..........a	-327.68
	3	0.08	-3.20671E-001	-3.67087E-001	-3.43879E-001	-9.49397E-007	9.05296E-007	-1.85469E-006	-3.69000E-001	4.02706E-004	6	..........a	-327.68
	4	0.1	-3.18643E-001	-3.65123E-001	-3.41883E-001	-9.46958E-007	9.07913E-007	-1.85487E-006	-3.67000E-001	4.16873E-004	6	..........a	-327.68
	5	0.12	-3.16611E-001	-3.63106E-001	-3.39859E-001	-9.44906E-007	9.09275E-007	-1.85418E-006	-3.65000E-001	4.06039E-004	6	..........a	-327.68
	6	0.14	-3.14601E-001	-3.61115E-001	-3.37858E-001	-9.43466E-007	9.08399E-007	-1.85187E-006	-3.63000E-001	3.96039E-004	6	..........a	-327.68
	7	0.16	-3.12595E-001	-3.59117E-001	-3.35856E-001	-9.41219E-007	9.08134E-007	-1.84935E-006	-3.61000E-001	3.98539E-004	6	..........a	-327.68
	8	0.18	-3.10562E-001	-3.57122E-001	-3.33842E-001	-9.39431E-007	9.08873E-007	-1.84830E-006	-3.59000E-001	4.15206E-004	6	..........a	-327.68
	9	0.2	-3.08516E-001	-3.55119E-001	-3.31818E-001	-9.38350E-007	9.09853E-007	-1.84820E-006	-3.57000E-001	3.99373E-004	6	..........a	-327.68
	10	0.22	-3.06518E-001	-3.53152E-001	-3.29835E-001	-9.37364E-007	9.10190E-007	-1.84755E-006	-3.55000E-001	3.98539E-004	6	..........a	-327.68
	11	0.24	-3.04500E-001	-3.51155E-001	-3.27827E-001	-9.35553E-007	9.08306E-007	-1.84386E-006	-3.53000E-001	4.07706E-004	6	..........a	-327.68
	12	0.26	-3.02483E-001	-3.49167E-001	-3.25825E-001	-9.34050E-007	9.08473E-007	-1.84252E-006	-3.51000E-001	3.80206E-004	6	..........a	-327.68
	13	0.28	-3.00430E-001	-3.47161E-001	-3.23796E-001	-9.30868E-007	9.07551E-007	-1.83842E-006	-3.49000E-001	4.07706E-004	6	..........a	-327.68
	14	0.3	-2.98425E-001	-3.45153E-001	-3.21789E-001	-9.29876E-007	9.07774E-007	-1.83765E-006	-3.47000E-001	4.18539E-004	6	..........a	-327.68
	15	0.32	-2.96362E-001	-3.43159E-001	-3.19761E-001	-9.28348E-007	9.07706E-007	-1.83605E-006	-3.45000E-001	4.08539E-004	6	..........a	-327.68
	16	0.34	-2.94307E-001	-3.41176E-001	-3.17742E-001	-9.25979E-007	9.04992E-007	-1.83097E-006	-3.43000E-001	3.82706E-004	6	..........a	-327.68
	17	0.36	-2.92262E-001	-3.39186E-001	-3.15724E-001	-9.23055E-007	9.04456E-007	-1.82751E-006	-3.41000E-001	3.91873E-004	6	..........a	-327.68
	18	0.38	-2.90239E-001	-3.37195E-001	-3.13717E-001	-9.19120E-007	9.03234E-007	-1.82235E-006	-3.39000E-001	3.96039E-004	6	..........a	-327.68
	19	0.4	-2.88184E-001	-3.35231E-001	-3.11708E-001	-9.16418E-007	9.02597E-007	-1.81901E-006	-3.37000E-001	3.85206E-004	6	..........a	-327.68
	20	0.42	-2.86132E-001	-3.33266E-001	-3.09699E-001	-9.13181E-007	9.01280E-007	-1.81446E-006	-3.35000E-001	3.79373E-004	6	..........a	-327.68
	21	0.44	-2.84065E-001	-3.31262E-001	-3.07663E-001	-9.10210E-007	8.99147E-007	-1.80936E-006	-3.33000E-001	3.86039E-004	6	..........a	-327.68
	22	0.46	-2.82063E-001	-3.29306E-001	-3.05685E-001	-9.04670E-007	8.95709E-007	-1.80038E-006	-3.31000E-001	3.82706E-004	6	..........a	-327.68
	23	0.48	-2.80013E-001	-3.27326E-001	-3.03670E-001	-8.99984E-007	8.93649E-007	-1.79363E-006	-3.29000E-001	3.76039E-004	6	..........a	-327.68
	24	0.5	-2.77963E-001	-3.25363E-001	-3.01663E-001	-8.95892E-007	8.91546E-007	-1.78744E-006	-3.27000E-001	3.86873E-004	6	..........a	-327.68
	25	0.52	-2.75919E-001	-3.23391E-001	-2.99655E-001	-8.90474E-007	8.88614E-007	-1.77909E-006	-3.25000E-001	3.83539E-004	6	..........a	-327.68
	26	0.54	-2.73866E-001	-3.21401E-001	-2.97633E-001	-8.84847E-007	8.84030E-007	-1.76888E-006	-3.23000E-001	4.15206E-004	6	..........a	-327.68
	27	0.56	-2.71816E-001	-3.19415E-001	-2.95616E-001	-8.78763E-007	8.79973E-007	-1.75874E-006	-3.21000E-001	4.13539E-004	6	..........a	-327.68
	28	0.58	-2.69772E-001	-3.17455E-001	-2.93613E-001	-8.71654E-007	8.75119E-007	-1.74677E-006	-3.19000E-001	3.85206E-004	6	..........a	-327.68
	29	0.6	-2.67681E-001	-3.15481E-001	-2.91581E-001	-8.66681E-007	8.70828E-007	-1.73751E-006	-3.17000E-001	4.05206E-004	6	..........a	-327.68
	30	0.62	-2.65636E-001	-3.13511E-001	-2.89573E-001	-8.60401E-007	8.66276E-007	-1.72668E-006	-3.15000E-001	3.92706E-004	6	..........a	-327.68
	31	0.64	-2.63591E-001	-3.11549E-001	-2.87570E-001	-8.53935E-007	8.60075E-007	-1.71401E-006	-3.13000E-001	4.20206E-004	6	..........a	-327.68
	32	0.66	-2.61562E-001	-3.09586E-001	-2.85574E-001	-8.46611E-007	8.53316E-007	-1.69993E-006	-3.11000E-001	4.04373E-004	6	..........a	-327.68
	33	0.68	-2.59502E-001	-3.07654E-001	-2.83578E-001	-8.39558E-007	8.46135E-007	-1.68569E-006	-3.09000E-001	4.06039E-004	6	..........a	-327.68
	34	0.7	-2.57462E-001	-3.05671E-001	-2.81566E-001	-8.33907E-007	8.40961E-007	-1.67487E-006	-3.07000E-001	4.05206E-004	6	..........a	-327.68
	35	0.72	-2.55415E-001	-3.03706E-001	-2.79560E-001	-8.28468E-007	8.34493E-007	-1.66296E-006	-3.05000E-001	4.05206E-004	6	..........a	-327.68
	36	0.74	-2.53403E-001	-3.01754E-001	-2.77578E-001	-8.23236E-007	8.26711E-007	-1.64995E-006	-3.03000E-001	4.09373E-004	6	..........a	-327.68
	37	0.76	-2.51383E-001	-2.99795E-001	-2.75589E-001	-8.16815E-007	8.18950E-007	-1.63576E-006	-3.01000E-001	4.08539E-004	6	..........a	-327.68
	38	0.78	-2.49327E-001	-2.97804E-001	-2.73566E-001	-8.11386E-007	8.11387E-007	-1.62277E-006	-2.99000E-001	4.05206E-004	6	..........a	-327.68
	39	0.8	-2.47301E-001	-2.95835E-001	-2.71568E-001	-8.08036E-007	8.05540E-007	-1.61358E-006	-2.97000E-001	4.16873E-004	6	..........a	-327.68
	40	0.82	-2.45285E-001	-2.93836E-001	-2.69560E-001	-8.05170E-007	7.98212E-007	-1.60338E-006	-2.95000E-001	4.09373E-004	6	..........a	-327.68
	41	0.84	-2.43277E-001	-2.91858E-001	-2.67568E-001	-8.02725E-007	7.91035E-007	-1.59376E-006	-2.93000E-001	4.11039E-004	6	..........a	-327.68
	42	0.86	-2.41238E-001	-2.89886E-001	-2.65562E-001	-8.00380E-007	7.83787E-007	-1.58417E-006	-2.91000E-001	4.10206E-004	6	..........a	-327.68
	43	0.88	-2.39226E-001	-2.87886E-001	-2.63556E-001	-7.98238E-007	7.77558E-007	-1.57580E-006	-2.89000E-001	4.27706E-004	6	..........a	-327.68
	44	0.9	-2.37240E-001	-2.85905E-001	-2.61572E-001	-7.99154E-007	7.71660E-007	-1.57081E-006	-2.87000E-001	4.02706E-004	6	..........a	-327.68
	45	0.92	-2.35244E-001	-2.83921E-001	-2.59582E-001	-7.99615E-007	7.66650E-007	-1.56626E-006	-2.85000E-001	4.06873E-004	6	..........a	-327.68
	46	0.94	-2.33288E-001	-2.81944E-001	-2.57616E-001	-8.00538E-007	7.61072E-007	-1.56161E-006	-2.83000E-001	4.17706E-004	6	..........a	-327.68
	47	0.96	-2.31281E-001	-2.79926E-001	-2.55604E-001	-8.02038E-007	7.56080E-007	-1.55812E-006	-2.81000E-001	4.16039E-004	6	..........a	-327.68
	48	0.98	-2.29321E-001	-2.77956E-001	-2.53638E-001	-8.03567E-007	7.52318E-007	-1.55588E-006	-2.79000E-001	4.02706E-004	6	..........a	-327.68
	49	1	-2.27351E-001	-2.75956E-001	-2.51653E-001	-8.07519E-007	7.49986E-007	-1.55750E-006	-2.77000E-001	4.14373E-004	6	..........a	-327.68
	50	1.02	-2.25385E-001	-2.73955E-001	-2.49670E-001	-8.11433E-007	7.47681E-007	-1.55911E-006	-2.75000E-001	3.89373E-004	6	..........a	-327.68
	51	1.04	-2.23438E-001	-2.71946E-001	-2.47692E-001	-8.15588E-007	7.45967E-007	-1.56156E-006	-2.73000E-001	4.01873E-004	6	..........a	-327.68
	52	1.06	-2.21486E-001	-2.69947E-001	-2.45717E-001	-8.18410E-007	7.43342E-007	-1.56175E-006	-2.71000E-001	3.95206E-004	6	..........a	-327.68
	53	1.08	-2.19511E-001	-2.67906E-001	-2.43709E-001	-8.22469E-007	7.42738E-007	-1.56521E-006	-2.69000E-001	4.08539E-004	6	..........a	-327.68
	54	1.1	-2.17591E-001	-2.65914E-001	-2.41752E-001	-8.27438E-007	7.43452E-007	-1.57089E-006	-2.67000E-001	4.15206E-004	6	..........a	-327.68
	55	1.12	-2.15586E-001	-2.63883E-001	-2.39734E-001	-8.32309E-007	7.43847E-007	-1.57616E-006	-2.65000E-001	3.99373E-004	6	..........a	-327.68
	56	1.14	-2.13669E-001	-2.61865E-001	-2.37767E-001	-8.36196E-007	7.44464E-007	-1.58066E-006	-2.63000E-001	4.01039E-004	6	..........a	-327.68
	57	1.16	-2.11754E-001	-2.59844E-001	-2.35799E-001	-8.39808E-007	7.45525E-007	-1.58533E-006	-2.61000E-001	3.78539E-004	6	..........a	-327.68
	58	1.18	-2.09794E-001	-2.57835E-001	-2.33814E-001	-8.43037E-007	7.47921E-007	-1.59096E-006	-2.59000E-001	3.84373E-004	6	..........a	-327.68
	59	1.2	-2.07867E-001	-2.55811E-001	-2.31839E-001	-8.47401E-007	7.50911E-007	-1.59831E-006	-2.57000E-001	3.90206E-004	6	..........a	-327.68
	60	1.22	-2.05945E-001	-2.53801E-001	-2.29873E-001	-8.50878E-007	7.54280E-007	-1.60516E-006	-2.55000E-001	4.08539E-004	6	..........a	-327.68
	61	1.24	-2.03986E-001	-2.51780E-001	-2.27883E-001	-8.54523E-007	7.56985E-007	-1.61151E-006	-2.53000E-001	3.81039E-004	6	..........a	-327.68
	62	1.26	-2.02088E-001	-2.49771E-001	-2.25929E-001	-8.56203E-007	7.60427E-007	-1.61663E-006	-2.51000E-001	3.81039E-004	6	..........a	-327.68
	63	1.28	-2.00118E-001	-2.47727E-001	-2.23923E-001	-8.58577E-007	7.63729E-007	-1.62231E-006	-2.49000E-001	3.96039E-004	6	..........a	-327.68
	64	1.3	-1.98193E-001	-2.45710E-001	-2.21951E-001	-8.60962E-007	7.68262E-007	-1.62922E-006	-2.47000E-001	4.01039E-004	6	..........a	-327.68
	65	1.32	-1.96269E-001	-2.43661E-001	-2.19965E-001	-8.62714E-007	7.73019E-007	-1.63573E-006	-2.45000E-001	3.89373E-004	6	..........a	-327.68
	66	1.34	-1.94336E-001	-2.41605E-001	-2.17970E-001	-8.64451E-007	7.76129E-007	-1.64058E-006	-2.43000E-001	3.84373E-004	6	..........a	-327.68
	67	1.36	-1.92372E-001	-2.39565E-001	-2.15968E-001	-8.64728E-007	7.80377E-007	-1.64510E-006	-2.41000E-001	4.11039E-004	6	..........a	-327.68
	68	1.38	-1.90410E-001	-2.37574E-001	-2.13992E-001	-8.64311E-007	7.83949E-007	-1.64826E-006	-2.39000E-001	3.93539E-004	6	..........a	-327.68
	69	1.4	-1.88459E-001	-2.35518E-001	-2.11988E-001	-8.65703E-007	7.89771E-007	-1.65547E-006	-2.37000E-001	3.96039E-004	6	..........a	-327.68
	70	1.42	-1.86511E-001	-2.33512E-001	-2.10011E-001	-8.66321E-007	7.94205E-007	-1.66053E-006	-2.35000E-001	3.92706E-004	6	..........a	-327.68
	71	1.44	-1.84548E-001	-2.31461E-001	-2.08004E-001	-8.66020E-007	7.97459E-007	-1.66348E-006	-2.33000E-001	4.11039E-004	6	..........a	-327.68
	72	1.46	-1.82586E-001	-2.29468E-001	-2.06027E-001	-8.64441E-007	8.01507E-007	-1.66595E-006	-2.31000E-001	3.97706E-004	6	..........a	-327.68
	73	1.48	-1.80629E-001	-2.27427E-001	-2.04028E-001	-8.63489E-007	8.04563E-007	-1.66805E-006	-2.29000E-001	3.99373E-004	6	..........a	-327.68
	74	1.5	-1.78684E-001	-2.25411E-001	-2.02048E-001	-8.63563E-007	8.08997E-007	-1.67256E-006	-2.27000E-001	4.11873E-004	6	..........a	-327.68
	75	1.52	-1.76718E-001	-2.23390E-001	-2.00054E-001	-8.63304E-007	8.12922E-007	-1.67623E-006	-2.25000E-001	3.87706E-004	6	..........a	-327.68
	76	1.54	-1.74766E-001	-2.21356E-001	-1.98061E-001	-8.61871E-007	8.15764E-007	-1.67764E-006	-2.23000E-001	4.01873E-004	6	..........a	-327.68
	77	1.56	-1.72781E-001	-2.19339E-001	-1.96060E-001	-8.60171E-007	8.18545E-007	-1.67872E-006	-2.21000E-001	3.92706E-004	6	..........a	-327.68
	78	1.58	-1.70831E-001	-2.17261E-001	-1.94046E-001	-8.57889E-007	8.21173E-007	-1.67906E-006	-2.19000E-001	4.16873E-004	6	..........a	-327.68
	79	1.6	-1.68854E-001	-2.15271E-001	-1.92062E-001	-8.58017E-007	8.24144E-007	-1.68216E-006	-2.17000E-001	4.17706E-004	6	..........a	-327.68
	80	1.62	-1.66856E-001	-2.13244E-001	-1.90050E-001	-8.57210E-007	8.27119E-007	-1.68433E-006	-2.15000E-001	4.12706E-004	6	..........a	-327.68
	81	1.64	-1.64886E-001	-2.11238E-001	-1.88062E-001	-8.54921E-007	8.28464E-007	-1.68339E-006	-2.13000E-001	3.98539E-004	6	..........a	-327.68
	82	1.66	-1.62896E-001	-2.09179E-001	-1.86038E-001	-8.52903E-007	8.29981E-007	-1.68288E-006	-2.11000E-001	3.90206E-004	6	..........a	-327.68
	83	1.68	-1.60894E-001	-2.07144E-001	-1.84019E-001	-8.51585E-007	8.31443E-007	-1.68303E-006	-2.09000E-001	3.79373E-004	6	..........a	-327.68
	84	1.7	-1.58926E-001	-2.05146E-001	-1.82036E-001	-8.50413E-007	8.34678E-007	-1.68509E-006	-2.07000E-001	3.86873E-004	6	..........a	-327.68
	85	1.72	-1.56932E-001	-2.03141E-001	-1.80036E-001	-8.49279E-007	8.35549E-007	-1.68483E-006	-2.05000E-001	3.97706E-004	6	..........a	-327.68
	86	1.74	-1.54961E-001	-2.01116E-001	-1.78039E-001	-8.48569E-007	8.35615E-007	-1.68418E-006	-2.03000E-001	3.97706E-004	6	..........a	-327.68
	87	1.76	-1.52969E-001	-1.99110E-001	-1.76039E-001	-8.46664E-007	8.35884E-007	-1.68255E-006	-2.01000E-001	3.95206E-004	6	..........a	-327.68
	88	1.78	-1.50995E-001	-1.97075E-001	-1.74035E-001	-8.45475E-007	8.36452E-007	-1.68193E-006	-1.99000E-001	4.06873E-004	6	..........a	-327.68
	89	1.8	-1.48987E-001	-1.95069E-001	-1.72028E-001	-8.44615E-007	8.38126E-007	-1.68274E-006	-1.97000E-001	4.02706E-004	6	..........a	-327.68
	90	1.82	-1.47022E-001	-1.93041E-001	-1.70031E-001	-8.43535E-007	8.39039E-007	-1.68257E-006	-1.95000E-001	4.02706E-004	6	..........a	-327.68
	91	1.84	-1.45006E-001	-1.91007E-001	-1.68006E-001	-8.42908E-007	8.38317E-007	-1.68123E-006	-1.93000E-001	4.11873E-004	6	..........a	-327.68
	92	1.86	-1.43016E-001	-1.88991E-001	-1.66003E-001	-8.41242E-007	8.37655E-007	-1.67890E-006	-1.91000E-001	4.03539E-004	6	..........a	-327.68
	93	1.88	-1.41021E-001	-1.86992E-001	-1.64007E-001	-8.39841E-007	8.38199E-007	-1.67804E-006	-1.89000E-001	4.07706E-004	6	..........a	-327.68
	94	1.9	-1.38993E-001	-1.84951E-001	-1.61972E-001	-8.39816E-007	8.38907E-007	-1.67872E-006	-1.87000E-001	4.00206E-004	6	..........a	-327.68
	95	1.92	-1.37024E-001	-1.82951E-001	-1.59987E-001	-8.38631E-007	8.38759E-007	-1.67739E-006	-1.85000E-001	3.98539E-004	6	..........a	-327.68
	96	1.94	-1.35016E-001	-1.80960E-001	-1.57988E-001	-8.38746E-007	8.38632E-007	-1.67738E-006	-1.83000E-001	3.97706E-004	6	..........a	-327.68
	97	1.96	-1.33034E-001	-1.78906E-001	-1.55970E-001	-8.37578E-007	8.37632E-007	-1.67521E-006	-1.81000E-001	3.97706E-004	6	..........a	-327.68
	98	1.98	-1.31021E-001	-1.76932E-001	-1.53977E-001	-8.35497E-007	8.36917E-007	-1.67241E-006	-1.79000E-001	3.94373E-004	6	..........a	-327.68
	99	2	-1.29026E-001	-1.74926E-001	-1.51976E-001	-8.35904E-007	8.37542E-007	-1.67345E-006	-1.77000E-001	4.11039E-004	6	..........a	-327.68
	100	2.02	-1.27039E-001	-1.72930E-001	-1.49984E-001	-8.35878E-007	8.37854E-007	-1.67373E-006	-1.75000E-001	3.86039E-004	6	..........a	-327.68
