EXPLAIN
TAG	SQUARE_WAVE
TITLE	LABEL	Square Wave Voltammetry	Test Identifier
DATE	LABEL	8/31/2020	Date
TIME	LABEL	12:38:19	Time
NOTES	NOTES	1	Notes...
	
PSTAT	PSTAT	REF600-24079	Potentiostat
VINIT	QUANT	-3.50000E-001	Initial E (V)
VFINAL	QUANT	-1.50000E-001	Final E (V)
STEPSIZE	QUANT	2.00000E+000	Step Size (mV)
TIMERRES	QUANT	3.33340E-005	&Timer Resolution
FREQUENCY	QUANT	7.50000E+001	Frequency (Hz)
PULSESIZE	QUANT	2.50000E+001	Pulse Size E (mV)
PULSEON	QUANT	1.33333E-002	Pulse &Time (s)
NOISEREJECT	TOGGLE	F	Noise Rejection
AREA	QUANT	2.00000E-002	Sample Area (cm^2)
IMODE	SELECTOR	1	I/E Range Mode
IRANGE	QUANT	1.00000E-003	Max Current (mA)
EQDELAY	IQUANT	10	Equil. Time (s)
IRCOMP	SELECTOR	0	IRComp
PFCOR	QUANT	5.00000E+001	PF Corr. (ohm)
CYCLES	IQUANT	101	C&ycles (#)
ELECTRODETYPE	SELECTOR	0	Electrode Type
STRIPPING	TOGGLE	F	Used for Stripping
POLARITY	TOGGLE	F	Signal Polarity
LINEFREQ	IQUANT	60	Line Frequency (Hz)
INTPERIOD	QUANT	3.3334E-005	Integration Period (s)
SEQUENCER	TOGGLE	TRUE	Run as Sequence
PSTATMODEL	IQUANT	4	Pstat Model
PSTATSECTION	LABEL	REF600-24079	Pstat Section
PSTATSERIALNO	LABEL	24079	Pstat Serial Number
CTRLMODE	IQUANT	1	Control Mode
ELECTROMETER	IQUANT	0	RE=0 or CS=1
IESTAB	IQUANT	2	I/E Stability
CASPEED	IQUANT	6	Control Amp Speed
CONVENTION	IQUANT	1	Current Convention
ICHRANGE	IQUANT	2	Ich Range
ICHRANGEMODE	TOGGLE	F	Ich Auto Range
ICHOFFSETENABLE	TOGGLE	F	Ich Offset Enable
ICHOFFSET	QUANT	0	Ich Offset (V)
ICHFILTER	IQUANT	2	Ich Filter
VCHRANGE	IQUANT	2	Vch Range
VCHRANGEMODE	TOGGLE	F	Vch Auto Range
VCHOFFSETENABLE	TOGGLE	F	Vch Offset Enable
VCHOFFSET	QUANT	0	Vch Offset (V)
VCHFILTER	IQUANT	2	Vch Filter
ACHRANGE	IQUANT	2	Ach Range
ACHOFFSETENABLE	TOGGLE	F	Ach Offset Enable
ACHOFFSET	QUANT	0	Ach Offset (V)
ACHFILTER	IQUANT	1	Ach Filter
IERANGELOWERLIMIT	IQUANT	1	I/E Range Lower Limit
IERANGEMODE	TOGGLE	F	I/E AutoRange
IERANGE	IQUANT	6	I/E Range
POSFEEDENABLE	TOGGLE	F	Positive Feedback IR Comp
POSFEEDRESISTANCE	QUANT	0	Positive Feedback Resistance (ohm)
ACHSELECT	IQUANT	0	Ach Select
SENSECABLEID	IQUANT	13	Sense Cable ID
PWRCABLEID	IQUANT	13	Power Cable ID
DCCALDATE	LABEL	6/30/2020	DC Calibration Date
ACCALDATE	LABEL	6/30/2020	AC Calibration Date
THERMOSELECT	IQUANT	1	Thermo Select
FRAMEWORKVERSION	LABEL	7.8.2	Framework Version
INSTRUMENTVERSION	LABEL	4.40	Instrument Version
CURVE	TABLE	101
	Pt	T	Vfwd	Vrev	Vstep	Ifwd	Irev	Idif	Sig	Ach	IERange	Over	Temp
	#	s	V	V	V	A	A	A	V	V	#	bits	deg C
	0	0.013333	-3.24805E-001	-3.86076E-001	-3.55440E-001	-1.09206E-009	2.25660E-008	-2.36580E-008	-3.75000E-001	3.41456E-004	6	..........a	-327.68
	1	0.026667	-3.10056E-001	-3.85395E-001	-3.47725E-001	-3.89994E-007	3.88753E-007	-7.78747E-007	-3.73000E-001	3.71456E-004	6	..........a	-327.68
	2	0.04	-3.08090E-001	-3.83358E-001	-3.45724E-001	-4.53437E-007	4.10033E-007	-8.63470E-007	-3.71000E-001	3.65206E-004	6	..........a	-327.68
	3	0.053333	-3.06107E-001	-3.81352E-001	-3.43730E-001	-4.41868E-007	4.13243E-007	-8.55111E-007	-3.69000E-001	3.35206E-004	6	..........a	-327.68
	4	0.066667	-3.04146E-001	-3.79391E-001	-3.41768E-001	-4.31574E-007	4.12978E-007	-8.44552E-007	-3.67000E-001	3.42706E-004	6	..........a	-327.68
	5	0.08	-3.02131E-001	-3.77382E-001	-3.39757E-001	-4.20715E-007	4.12131E-007	-8.32846E-007	-3.65000E-001	3.53956E-004	6	..........a	-327.68
	6	0.093333	-3.00112E-001	-3.75417E-001	-3.37765E-001	-4.11724E-007	4.10578E-007	-8.22302E-007	-3.63000E-001	3.43956E-004	6	..........a	-327.68
	7	0.106667	-2.98136E-001	-3.73396E-001	-3.35766E-001	-4.03843E-007	4.08313E-007	-8.12156E-007	-3.61000E-001	3.48956E-004	6	..........a	-327.68
	8	0.12	-2.96125E-001	-3.71408E-001	-3.33767E-001	-3.94852E-007	4.05427E-007	-8.00279E-007	-3.59000E-001	3.52706E-004	6	..........a	-327.68
	9	0.133333	-2.94092E-001	-3.69425E-001	-3.31758E-001	-3.83821E-007	3.99259E-007	-7.83080E-007	-3.57000E-001	3.31456E-004	6	..........a	-327.68
	10	0.146667	-2.92098E-001	-3.67388E-001	-3.29743E-001	-3.71829E-007	3.94251E-007	-7.66080E-007	-3.55000E-001	3.32706E-004	6	..........a	-327.68
	11	0.16	-2.90095E-001	-3.65456E-001	-3.27775E-001	-3.59938E-007	3.88608E-007	-7.48545E-007	-3.53000E-001	3.56456E-004	6	..........a	-327.68
	12	0.173333	-2.88061E-001	-3.63455E-001	-3.25758E-001	-3.48816E-007	3.83279E-007	-7.32096E-007	-3.51000E-001	3.26456E-004	6	..........a	-327.68
	13	0.186667	-2.86086E-001	-3.61475E-001	-3.23780E-001	-3.36082E-007	3.75601E-007	-7.11683E-007	-3.49000E-001	3.45206E-004	6	..........a	-327.68
	14	0.2	-2.84085E-001	-3.59517E-001	-3.21801E-001	-3.23018E-007	3.66037E-007	-6.89055E-007	-3.47000E-001	3.46456E-004	6	..........a	-327.68
	15	0.213333	-2.82095E-001	-3.57512E-001	-3.19803E-001	-3.07013E-007	3.56906E-007	-6.63919E-007	-3.45000E-001	3.32706E-004	6	..........a	-327.68
	16	0.226667	-2.80102E-001	-3.55577E-001	-3.17840E-001	-2.92542E-007	3.47482E-007	-6.40024E-007	-3.43000E-001	3.71456E-004	6	..........a	-327.68
	17	0.24	-2.78086E-001	-3.53578E-001	-3.15832E-001	-2.76472E-007	3.37986E-007	-6.14458E-007	-3.41000E-001	3.26456E-004	6	..........a	-327.68
	18	0.253333	-2.76067E-001	-3.51612E-001	-3.13840E-001	-2.59185E-007	3.26895E-007	-5.86080E-007	-3.39000E-001	3.41456E-004	6	..........a	-327.68
	19	0.266667	-2.74075E-001	-3.49643E-001	-3.11859E-001	-2.40750E-007	3.12965E-007	-5.53715E-007	-3.37000E-001	3.18956E-004	6	..........a	-327.68
	20	0.28	-2.72075E-001	-3.47611E-001	-3.09843E-001	-2.21218E-007	2.99391E-007	-5.20609E-007	-3.35000E-001	3.46456E-004	6	..........a	-327.68
	21	0.293333	-2.70037E-001	-3.45638E-001	-3.07838E-001	-2.01503E-007	2.86185E-007	-4.87687E-007	-3.33000E-001	3.66456E-004	6	..........a	-327.68
	22	0.306667	-2.68056E-001	-3.43641E-001	-3.05848E-001	-1.82553E-007	2.72688E-007	-4.55240E-007	-3.31000E-001	3.47706E-004	6	..........a	-327.68
	23	0.32	-2.66022E-001	-3.41667E-001	-3.03845E-001	-1.61955E-007	2.57681E-007	-4.19636E-007	-3.29000E-001	3.66456E-004	6	..........a	-327.68
	24	0.333333	-2.64003E-001	-3.39700E-001	-3.01852E-001	-1.39845E-007	2.40534E-007	-3.80378E-007	-3.27000E-001	3.30206E-004	6	..........a	-327.68
	25	0.346667	-2.62012E-001	-3.37741E-001	-2.99877E-001	-1.15744E-007	2.24372E-007	-3.40116E-007	-3.25000E-001	3.33956E-004	6	..........a	-327.68
	26	0.36	-2.60007E-001	-3.35735E-001	-2.97871E-001	-9.36238E-008	2.06182E-007	-2.99806E-007	-3.23000E-001	3.53956E-004	6	..........a	-327.68
	27	0.373333	-2.58005E-001	-3.33740E-001	-2.95872E-001	-7.19711E-008	1.90970E-007	-2.62941E-007	-3.21000E-001	3.66456E-004	6	..........a	-327.68
	28	0.386667	-2.55990E-001	-3.31770E-001	-2.93880E-001	-4.95007E-008	1.73205E-007	-2.22706E-007	-3.19000E-001	3.65206E-004	6	..........a	-327.68
	29	0.4	-2.53971E-001	-3.29780E-001	-2.91875E-001	-2.52101E-008	1.55418E-007	-1.80628E-007	-3.17000E-001	3.47706E-004	6	..........a	-327.68
	30	0.413333	-2.51957E-001	-3.27775E-001	-2.89866E-001	-3.19732E-009	1.37183E-007	-1.40380E-007	-3.15000E-001	3.65206E-004	6	..........a	-327.68
	31	0.426667	-2.49965E-001	-3.25805E-001	-2.87885E-001	1.87880E-008	1.20998E-007	-1.02211E-007	-3.13000E-001	3.40206E-004	6	..........a	-327.68
	32	0.44	-2.47942E-001	-3.23807E-001	-2.85875E-001	3.93281E-008	1.04886E-007	-6.55583E-008	-3.11000E-001	3.51456E-004	6	..........a	-327.68
	33	0.453333	-2.45940E-001	-3.21807E-001	-2.83873E-001	5.87906E-008	8.80543E-008	-2.92637E-008	-3.09000E-001	3.71456E-004	6	..........a	-327.68
	34	0.466667	-2.43921E-001	-3.19767E-001	-2.81844E-001	7.86481E-008	7.21548E-008	6.49332E-009	-3.07000E-001	3.70206E-004	6	..........a	-327.68
	35	0.48	-2.41882E-001	-3.17776E-001	-2.79829E-001	9.67654E-008	5.74579E-008	3.93075E-008	-3.05000E-001	3.60206E-004	6	..........a	-327.68
	36	0.493333	-2.39886E-001	-3.15766E-001	-2.77826E-001	1.12727E-007	4.41587E-008	6.85687E-008	-3.03000E-001	3.77706E-004	6	..........a	-327.68
	37	0.506667	-2.37858E-001	-3.13773E-001	-2.75816E-001	1.26382E-007	3.34948E-008	9.28868E-008	-3.01000E-001	3.46456E-004	6	..........a	-327.68
	38	0.52	-2.35863E-001	-3.11765E-001	-2.73814E-001	1.37093E-007	2.32385E-008	1.13854E-007	-2.99000E-001	3.37706E-004	6	..........a	-327.68
	39	0.533333	-2.33820E-001	-3.09742E-001	-2.71781E-001	1.48187E-007	1.23472E-008	1.35840E-007	-2.97000E-001	3.66456E-004	6	..........a	-327.68
	40	0.546667	-2.31825E-001	-3.07705E-001	-2.69765E-001	1.56666E-007	4.98372E-009	1.51682E-007	-2.95000E-001	3.78956E-004	6	..........a	-327.68
	41	0.56	-2.29801E-001	-3.05676E-001	-2.67738E-001	1.61739E-007	-2.41947E-010	1.61981E-007	-2.93000E-001	3.68956E-004	6	..........a	-327.68
	42	0.573333	-2.27806E-001	-3.03692E-001	-2.65749E-001	1.64151E-007	-2.94479E-009	1.67096E-007	-2.91000E-001	3.50206E-004	6	..........a	-327.68
	43	0.586667	-2.25788E-001	-3.01678E-001	-2.63733E-001	1.63241E-007	-3.87741E-009	1.67119E-007	-2.89000E-001	3.63956E-004	6	..........a	-327.68
	44	0.6	-2.23760E-001	-2.99648E-001	-2.61704E-001	1.60916E-007	-5.29759E-009	1.66214E-007	-2.87000E-001	3.71456E-004	6	..........a	-327.68
	45	0.613333	-2.21762E-001	-2.97622E-001	-2.59692E-001	1.56368E-007	-3.91241E-009	1.60280E-007	-2.85000E-001	3.60206E-004	6	..........a	-327.68
	46	0.626667	-2.19753E-001	-2.95560E-001	-2.57657E-001	1.49120E-007	-8.94280E-011	1.49209E-007	-2.83000E-001	3.62706E-004	6	..........a	-327.68
	47	0.64	-2.17707E-001	-2.93515E-001	-2.55611E-001	1.38643E-007	6.54392E-009	1.32099E-007	-2.81000E-001	3.58956E-004	6	..........a	-327.68
	48	0.653333	-2.15716E-001	-2.91482E-001	-2.53599E-001	1.26499E-007	1.36748E-008	1.12824E-007	-2.79000E-001	3.45206E-004	6	..........a	-327.68
	49	0.666667	-2.13698E-001	-2.89455E-001	-2.51577E-001	1.12225E-007	2.22834E-008	8.99414E-008	-2.77000E-001	3.37706E-004	6	..........a	-327.68
	50	0.68	-2.11727E-001	-2.87453E-001	-2.49590E-001	9.70454E-008	3.20047E-008	6.50408E-008	-2.75000E-001	3.70206E-004	6	..........a	-327.68
	51	0.693333	-2.09728E-001	-2.85378E-001	-2.47553E-001	7.90356E-008	4.50838E-008	3.39518E-008	-2.73000E-001	3.11456E-004	6	..........a	-327.68
	52	0.706667	-2.07720E-001	-2.83352E-001	-2.45536E-001	5.86030E-008	5.90556E-008	-4.52559E-010	-2.71000E-001	3.43956E-004	6	..........a	-327.68
	53	0.72	-2.05721E-001	-2.81327E-001	-2.43524E-001	3.81629E-008	7.14597E-008	-3.32967E-008	-2.69000E-001	3.40206E-004	6	..........a	-327.68
	54	0.733333	-2.03747E-001	-2.79298E-001	-2.41523E-001	1.70878E-008	8.55765E-008	-6.84887E-008	-2.67000E-001	3.65206E-004	6	..........a	-327.68
	55	0.746667	-2.01775E-001	-2.77255E-001	-2.39515E-001	-4.04743E-009	1.01288E-007	-1.05336E-007	-2.65000E-001	3.51456E-004	6	..........a	-327.68
	56	0.76	-1.99781E-001	-2.75233E-001	-2.37507E-001	-2.63478E-008	1.17648E-007	-1.43996E-007	-2.63000E-001	3.17706E-004	6	..........a	-327.68
	57	0.773333	-1.97808E-001	-2.73235E-001	-2.35522E-001	-5.16085E-008	1.34668E-007	-1.86276E-007	-2.61000E-001	3.45206E-004	6	..........a	-327.68
	58	0.786667	-1.95828E-001	-2.71168E-001	-2.33498E-001	-7.36913E-008	1.52307E-007	-2.25999E-007	-2.59000E-001	3.78956E-004	6	..........a	-327.68
	59	0.8	-1.93828E-001	-2.69112E-001	-2.31470E-001	-9.76468E-008	1.68557E-007	-2.66204E-007	-2.57000E-001	3.28956E-004	6	..........a	-327.68
	60	0.813333	-1.91840E-001	-2.67097E-001	-2.29468E-001	-1.19422E-007	1.85052E-007	-3.04474E-007	-2.55000E-001	3.41456E-004	6	..........a	-327.68
	61	0.826667	-1.89860E-001	-2.65025E-001	-2.27442E-001	-1.41992E-007	2.02916E-007	-3.44909E-007	-2.53000E-001	3.51456E-004	6	..........a	-327.68
	62	0.84	-1.87881E-001	-2.62998E-001	-2.25440E-001	-1.65085E-007	2.20979E-007	-3.86064E-007	-2.51000E-001	3.42706E-004	6	..........a	-327.68
	63	0.853333	-1.85952E-001	-2.60996E-001	-2.23474E-001	-1.87288E-007	2.37868E-007	-4.25157E-007	-2.49000E-001	3.16456E-004	6	..........a	-327.68
	64	0.866667	-1.83967E-001	-2.58945E-001	-2.21456E-001	-2.08111E-007	2.52688E-007	-4.60799E-007	-2.47000E-001	3.22706E-004	6	..........a	-327.68
	65	0.88	-1.82008E-001	-2.56946E-001	-2.19477E-001	-2.27738E-007	2.69135E-007	-4.96873E-007	-2.45000E-001	3.32706E-004	6	..........a	-327.68
	66	0.893333	-1.80022E-001	-2.54901E-001	-2.17462E-001	-2.47863E-007	2.85259E-007	-5.33123E-007	-2.43000E-001	3.55206E-004	6	..........a	-327.68
	67	0.906667	-1.78058E-001	-2.52896E-001	-2.15477E-001	-2.66481E-007	3.00781E-007	-5.67262E-007	-2.41000E-001	3.31456E-004	6	..........a	-327.68
	68	0.92	-1.76106E-001	-2.50875E-001	-2.13490E-001	-2.83268E-007	3.16066E-007	-5.99334E-007	-2.39000E-001	3.48956E-004	6	..........a	-327.68
	69	0.933333	-1.74152E-001	-2.48850E-001	-2.11501E-001	-3.00173E-007	3.30160E-007	-6.30333E-007	-2.37000E-001	3.65206E-004	6	..........a	-327.68
	70	0.946667	-1.72177E-001	-2.46840E-001	-2.09508E-001	-3.15302E-007	3.43319E-007	-6.58621E-007	-2.35000E-001	3.47706E-004	6	..........a	-327.68
	71	0.96	-1.70246E-001	-2.44777E-001	-2.07512E-001	-3.30726E-007	3.56781E-007	-6.87508E-007	-2.33000E-001	3.35206E-004	6	..........a	-327.68
	72	0.97333	-1.68233E-001	-2.42765E-001	-2.05499E-001	-3.45393E-007	3.70910E-007	-7.16304E-007	-2.31000E-001	3.55206E-004	6	..........a	-327.68
	73	0.98667	-1.66263E-001	-2.40735E-001	-2.03499E-001	-3.59565E-007	3.82894E-007	-7.42459E-007	-2.29000E-001	3.36456E-004	6	..........a	-327.68
	74	1	-1.64277E-001	-2.38708E-001	-2.01493E-001	-3.70759E-007	3.92918E-007	-7.63677E-007	-2.27000E-001	3.45206E-004	6	..........a	-327.68
	75	1.01333	-1.62330E-001	-2.36726E-001	-1.99528E-001	-3.81255E-007	4.03489E-007	-7.84745E-007	-2.25000E-001	3.55206E-004	6	..........a	-327.68
	76	1.02667	-1.60357E-001	-2.34696E-001	-1.97527E-001	-3.91439E-007	4.14333E-007	-8.05773E-007	-2.23000E-001	3.73956E-004	6	..........a	-327.68
	77	1.04	-1.58405E-001	-2.32683E-001	-1.95544E-001	-4.02856E-007	4.25295E-007	-8.28150E-007	-2.21000E-001	3.73956E-004	6	..........a	-327.68
	78	1.05333	-1.56445E-001	-2.30676E-001	-1.93560E-001	-4.11602E-007	4.33666E-007	-8.45268E-007	-2.19000E-001	3.65206E-004	6	..........a	-327.68
	79	1.06667	-1.54446E-001	-2.28672E-001	-1.91559E-001	-4.19775E-007	4.41774E-007	-8.61550E-007	-2.17000E-001	3.61456E-004	6	..........a	-327.68
	80	1.08	-1.52466E-001	-2.26671E-001	-1.89568E-001	-4.26419E-007	4.49580E-007	-8.75999E-007	-2.15000E-001	3.62706E-004	6	..........a	-327.68
	81	1.09333	-1.50516E-001	-2.24660E-001	-1.87588E-001	-4.33397E-007	4.58129E-007	-8.91526E-007	-2.13000E-001	3.58956E-004	6	..........a	-327.68
	82	1.10667	-1.48543E-001	-2.22655E-001	-1.85599E-001	-4.40923E-007	4.65287E-007	-9.06210E-007	-2.11000E-001	3.46456E-004	6	..........a	-327.68
	83	1.12	-1.46562E-001	-2.20633E-001	-1.83598E-001	-4.47289E-007	4.72983E-007	-9.20272E-007	-2.09000E-001	3.28956E-004	6	..........a	-327.68
	84	1.13333	-1.44585E-001	-2.18623E-001	-1.81604E-001	-4.51702E-007	4.77156E-007	-9.28858E-007	-2.07000E-001	3.31456E-004	6	..........a	-327.68
	85	1.14667	-1.42562E-001	-2.16563E-001	-1.79563E-001	-4.56042E-007	4.82269E-007	-9.38312E-007	-2.05000E-001	3.60206E-004	6	..........a	-327.68
	86	1.16	-1.40603E-001	-2.14567E-001	-1.77585E-001	-4.60613E-007	4.88798E-007	-9.49411E-007	-2.03000E-001	3.57706E-004	6	..........a	-327.68
	87	1.17333	-1.38630E-001	-2.12592E-001	-1.75611E-001	-4.65834E-007	4.95511E-007	-9.61345E-007	-2.01000E-001	3.70206E-004	6	..........a	-327.68
	88	1.18667	-1.36623E-001	-2.10592E-001	-1.73608E-001	-4.69204E-007	5.00049E-007	-9.69253E-007	-1.99000E-001	3.50206E-004	6	..........a	-327.68
	89	1.2	-1.34647E-001	-2.08577E-001	-1.71612E-001	-4.71744E-007	5.03157E-007	-9.74901E-007	-1.97000E-001	3.65206E-004	6	..........a	-327.68
	90	1.21333	-1.32663E-001	-2.06577E-001	-1.69620E-001	-4.73200E-007	5.07283E-007	-9.80482E-007	-1.95000E-001	3.60206E-004	6	..........a	-327.68
	91	1.22667	-1.30671E-001	-2.04567E-001	-1.67619E-001	-4.75950E-007	5.10866E-007	-9.86816E-007	-1.93000E-001	3.72706E-004	6	..........a	-327.68
	92	1.24	-1.28702E-001	-2.02583E-001	-1.65643E-001	-4.79810E-007	5.15376E-007	-9.95187E-007	-1.91000E-001	3.50206E-004	6	..........a	-327.68
	93	1.25333	-1.26716E-001	-2.00600E-001	-1.63658E-001	-4.82293E-007	5.18647E-007	-1.00094E-006	-1.89000E-001	3.55206E-004	6	..........a	-327.68
	94	1.26667	-1.24700E-001	-1.98573E-001	-1.61637E-001	-4.83718E-007	5.21342E-007	-1.00506E-006	-1.87000E-001	3.53956E-004	6	..........a	-327.68
	95	1.28	-1.22721E-001	-1.96570E-001	-1.59645E-001	-4.85134E-007	5.23280E-007	-1.00841E-006	-1.85000E-001	3.32706E-004	6	..........a	-327.68
	96	1.29333	-1.20725E-001	-1.94536E-001	-1.57630E-001	-4.84961E-007	5.26255E-007	-1.01122E-006	-1.83000E-001	3.46456E-004	6	..........a	-327.68
	97	1.30667	-1.18737E-001	-1.92555E-001	-1.55646E-001	-4.87811E-007	5.29588E-007	-1.01740E-006	-1.81000E-001	3.56456E-004	6	..........a	-327.68
	98	1.32	-1.16747E-001	-1.90537E-001	-1.53642E-001	-4.88697E-007	5.30991E-007	-1.01969E-006	-1.79000E-001	3.60206E-004	6	..........a	-327.68
	99	1.33333	-1.14715E-001	-1.88513E-001	-1.51614E-001	-4.89692E-007	5.32421E-007	-1.02211E-006	-1.77000E-001	3.46456E-004	6	..........a	-327.68
	100	1.34667	-1.12748E-001	-1.86542E-001	-1.49645E-001	-4.88912E-007	5.33886E-007	-1.02280E-006	-1.75000E-001	3.50206E-004	6	..........a	-327.68
