EXPLAIN
TAG	SQUARE_WAVE
TITLE	LABEL	Square Wave Voltammetry	Test Identifier
DATE	LABEL	8/31/2020	Date
TIME	LABEL	12:38:31	Time
NOTES	NOTES	1	Notes...
	
PSTAT	PSTAT	REF600-24079	Potentiostat
VINIT	QUANT	-3.50000E-001	Initial E (V)
VFINAL	QUANT	-1.50000E-001	Final E (V)
STEPSIZE	QUANT	2.00000E+000	Step Size (mV)
TIMERRES	QUANT	3.33340E-005	&Timer Resolution
FREQUENCY	QUANT	1.00000E+002	Frequency (Hz)
PULSESIZE	QUANT	2.50000E+001	Pulse Size E (mV)
PULSEON	QUANT	1.00000E-002	Pulse &Time (s)
NOISEREJECT	TOGGLE	F	Noise Rejection
AREA	QUANT	2.00000E-002	Sample Area (cm^2)
IMODE	SELECTOR	1	I/E Range Mode
IRANGE	QUANT	1.00000E-002	Max Current (mA)
EQDELAY	IQUANT	10	Equil. Time (s)
IRCOMP	SELECTOR	0	IRComp
PFCOR	QUANT	5.00000E+001	PF Corr. (ohm)
CYCLES	IQUANT	101	C&ycles (#)
ELECTRODETYPE	SELECTOR	0	Electrode Type
STRIPPING	TOGGLE	F	Used for Stripping
POLARITY	TOGGLE	F	Signal Polarity
LINEFREQ	IQUANT	60	Line Frequency (Hz)
INTPERIOD	QUANT	3.3334E-005	Integration Period (s)
SEQUENCER	TOGGLE	TRUE	Run as Sequence
PSTATMODEL	IQUANT	4	Pstat Model
PSTATSECTION	LABEL	REF600-24079	Pstat Section
PSTATSERIALNO	LABEL	24079	Pstat Serial Number
CTRLMODE	IQUANT	1	Control Mode
ELECTROMETER	IQUANT	0	RE=0 or CS=1
IESTAB	IQUANT	2	I/E Stability
CASPEED	IQUANT	6	Control Amp Speed
CONVENTION	IQUANT	1	Current Convention
ICHRANGE	IQUANT	2	Ich Range
ICHRANGEMODE	TOGGLE	F	Ich Auto Range
ICHOFFSETENABLE	TOGGLE	F	Ich Offset Enable
ICHOFFSET	QUANT	0	Ich Offset (V)
ICHFILTER	IQUANT	2	Ich Filter
VCHRANGE	IQUANT	2	Vch Range
VCHRANGEMODE	TOGGLE	F	Vch Auto Range
VCHOFFSETENABLE	TOGGLE	F	Vch Offset Enable
VCHOFFSET	QUANT	0	Vch Offset (V)
VCHFILTER	IQUANT	2	Vch Filter
ACHRANGE	IQUANT	2	Ach Range
ACHOFFSETENABLE	TOGGLE	F	Ach Offset Enable
ACHOFFSET	QUANT	0	Ach Offset (V)
ACHFILTER	IQUANT	1	Ach Filter
IERANGELOWERLIMIT	IQUANT	1	I/E Range Lower Limit
IERANGEMODE	TOGGLE	F	I/E AutoRange
IERANGE	IQUANT	7	I/E Range
POSFEEDENABLE	TOGGLE	F	Positive Feedback IR Comp
POSFEEDRESISTANCE	QUANT	0	Positive Feedback Resistance (ohm)
ACHSELECT	IQUANT	0	Ach Select
SENSECABLEID	IQUANT	13	Sense Cable ID
PWRCABLEID	IQUANT	13	Power Cable ID
DCCALDATE	LABEL	6/30/2020	DC Calibration Date
ACCALDATE	LABEL	6/30/2020	AC Calibration Date
THERMOSELECT	IQUANT	1	Thermo Select
FRAMEWORKVERSION	LABEL	7.8.2	Framework Version
INSTRUMENTVERSION	LABEL	4.40	Instrument Version
CURVE	TABLE	101
	Pt	T	Vfwd	Vrev	Vstep	Ifwd	Irev	Idif	Sig	Ach	IERange	Over	Temp
	#	s	V	V	V	A	A	A	V	V	#	bits	deg C
	0	0.01	-3.24876E-001	-3.74354E-001	-3.49615E-001	-3.37997E-010	-3.09480E-007	3.09142E-007	-3.75000E-001	3.29373E-004	7	..........a	-327.68
	1	0.02	-3.23416E-001	-3.72348E-001	-3.47882E-001	2.05723E-007	-2.72475E-007	4.78199E-007	-3.73000E-001	3.37706E-004	7	..........a	-327.68
	2	0.03	-3.21398E-001	-3.70384E-001	-3.45891E-001	2.27826E-007	-2.59873E-007	4.87700E-007	-3.71000E-001	3.51039E-004	7	..........a	-327.68
	3	0.04	-3.19436E-001	-3.68373E-001	-3.43904E-001	2.33927E-007	-2.52306E-007	4.86233E-007	-3.69000E-001	3.59373E-004	7	..........a	-327.68
	4	0.05	-3.17429E-001	-3.66331E-001	-3.41880E-001	2.40728E-007	-2.49272E-007	4.90000E-007	-3.67000E-001	3.39373E-004	7	..........a	-327.68
	5	0.06	-3.15419E-001	-3.64346E-001	-3.39883E-001	2.45462E-007	-2.43471E-007	4.88933E-007	-3.65000E-001	3.39373E-004	7	..........a	-327.68
	6	0.07	-3.13366E-001	-3.62376E-001	-3.37871E-001	2.47662E-007	-2.41871E-007	4.89533E-007	-3.63000E-001	3.31039E-004	7	..........a	-327.68
	7	0.08	-3.11428E-001	-3.60356E-001	-3.35892E-001	2.47829E-007	-2.41604E-007	4.89433E-007	-3.61000E-001	3.27706E-004	7	..........a	-327.68
	8	0.09	-3.09409E-001	-3.58348E-001	-3.33878E-001	2.52430E-007	-2.39137E-007	4.91567E-007	-3.59000E-001	3.32706E-004	7	..........a	-327.68
	9	0.1	-3.07389E-001	-3.56379E-001	-3.31884E-001	2.54597E-007	-2.42438E-007	4.97034E-007	-3.57000E-001	3.51039E-004	7	..........a	-327.68
	10	0.11	-3.05364E-001	-3.54394E-001	-3.29879E-001	2.56497E-007	-2.40571E-007	4.97068E-007	-3.55000E-001	3.59373E-004	7	..........a	-327.68
	11	0.12	-3.03411E-001	-3.52378E-001	-3.27894E-001	2.59231E-007	-2.40504E-007	4.99735E-007	-3.53000E-001	3.56039E-004	7	..........a	-327.68
	12	0.13	-3.01448E-001	-3.50351E-001	-3.25899E-001	2.61898E-007	-2.41671E-007	5.03569E-007	-3.51000E-001	3.72706E-004	7	..........a	-327.68
	13	0.14	-2.99424E-001	-3.48388E-001	-3.23906E-001	2.64665E-007	-2.39871E-007	5.04535E-007	-3.49000E-001	3.44373E-004	7	..........a	-327.68
	14	0.15	-2.97398E-001	-3.46366E-001	-3.21882E-001	2.65265E-007	-2.43338E-007	5.08603E-007	-3.47000E-001	3.27706E-004	7	..........a	-327.68
	15	0.16	-2.95403E-001	-3.44353E-001	-3.19878E-001	2.66732E-007	-2.40271E-007	5.07002E-007	-3.45000E-001	3.19373E-004	7	..........a	-327.68
	16	0.17	-2.93448E-001	-3.42333E-001	-3.17890E-001	2.67665E-007	-2.41137E-007	5.08803E-007	-3.43000E-001	3.37706E-004	7	..........a	-327.68
	17	0.18	-2.91398E-001	-3.40356E-001	-3.15877E-001	2.70399E-007	-2.42571E-007	5.12970E-007	-3.41000E-001	3.21039E-004	7	..........a	-327.68
	18	0.19	-2.89389E-001	-3.38386E-001	-3.13888E-001	2.72499E-007	-2.42271E-007	5.14770E-007	-3.39000E-001	3.02706E-004	7	..........a	-327.68
	19	0.2	-2.87438E-001	-3.36369E-001	-3.11903E-001	2.75500E-007	-2.46572E-007	5.22071E-007	-3.37000E-001	3.44373E-004	7	..........a	-327.68
	20	0.21	-2.85421E-001	-3.34309E-001	-3.09865E-001	2.79600E-007	-2.50539E-007	5.30139E-007	-3.35000E-001	3.24373E-004	7	..........a	-327.68
	21	0.22	-2.83368E-001	-3.32383E-001	-3.07875E-001	2.81534E-007	-2.52072E-007	5.33606E-007	-3.33000E-001	3.49373E-004	7	..........a	-327.68
	22	0.23	-2.81388E-001	-3.30406E-001	-3.05897E-001	2.87535E-007	-2.55239E-007	5.42774E-007	-3.31000E-001	3.47706E-004	7	..........a	-327.68
	23	0.24	-2.79404E-001	-3.28423E-001	-3.03913E-001	2.89401E-007	-2.56006E-007	5.45408E-007	-3.29000E-001	3.46039E-004	7	..........a	-327.68
	24	0.25	-2.77411E-001	-3.26358E-001	-3.01884E-001	2.92169E-007	-2.58540E-007	5.50708E-007	-3.27000E-001	3.29373E-004	7	..........a	-327.68
	25	0.26	-2.75391E-001	-3.24371E-001	-2.99881E-001	2.97203E-007	-2.61374E-007	5.58576E-007	-3.25000E-001	3.52706E-004	7	..........a	-327.68
	26	0.27	-2.73386E-001	-3.22359E-001	-2.97873E-001	2.98069E-007	-2.63007E-007	5.61076E-007	-3.23000E-001	3.46039E-004	7	..........a	-327.68
	27	0.28	-2.71418E-001	-3.20394E-001	-2.95906E-001	3.02737E-007	-2.69541E-007	5.72278E-007	-3.21000E-001	3.34373E-004	7	..........a	-327.68
	28	0.29	-2.69401E-001	-3.18321E-001	-2.93861E-001	3.07904E-007	-2.71108E-007	5.79012E-007	-3.19000E-001	3.61039E-004	7	..........a	-327.68
	29	0.3	-2.67376E-001	-3.16373E-001	-2.91874E-001	3.12771E-007	-2.76109E-007	5.88880E-007	-3.17000E-001	3.26039E-004	7	..........a	-327.68
	30	0.31	-2.65336E-001	-3.14394E-001	-2.89865E-001	3.18939E-007	-2.79209E-007	5.98148E-007	-3.15000E-001	3.44373E-004	7	..........a	-327.68
	31	0.32	-2.63418E-001	-3.12394E-001	-2.87906E-001	3.21106E-007	-2.83310E-007	6.04416E-007	-3.13000E-001	3.26039E-004	7	..........a	-327.68
	32	0.33	-2.61404E-001	-3.10363E-001	-2.85883E-001	3.26440E-007	-2.87177E-007	6.13617E-007	-3.11000E-001	3.49373E-004	7	..........a	-327.68
	33	0.34	-2.59386E-001	-3.08379E-001	-2.83883E-001	3.32174E-007	-2.90578E-007	6.22752E-007	-3.09000E-001	3.31039E-004	7	..........a	-327.68
	34	0.35	-2.57354E-001	-3.06418E-001	-2.81886E-001	3.36675E-007	-2.95778E-007	6.32453E-007	-3.07000E-001	3.37706E-004	7	..........a	-327.68
	35	0.36	-2.55423E-001	-3.04408E-001	-2.79915E-001	3.41875E-007	-2.99079E-007	6.40954E-007	-3.05000E-001	3.54373E-004	7	..........a	-327.68
	36	0.37	-2.53423E-001	-3.02369E-001	-2.77896E-001	3.45409E-007	-3.03279E-007	6.48688E-007	-3.03000E-001	2.96039E-004	7	..........a	-327.68
	37	0.38	-2.51383E-001	-3.00379E-001	-2.75881E-001	3.51677E-007	-3.11014E-007	6.62690E-007	-3.01000E-001	3.32706E-004	7	..........a	-327.68
	38	0.39	-2.49351E-001	-2.98396E-001	-2.73873E-001	3.55410E-007	-3.11514E-007	6.66924E-007	-2.99000E-001	3.52706E-004	7	..........a	-327.68
	39	0.4	-2.47406E-001	-2.96393E-001	-2.71899E-001	3.59478E-007	-3.15614E-007	6.75092E-007	-2.97000E-001	3.41039E-004	7	..........a	-327.68
	40	0.41	-2.45378E-001	-2.94359E-001	-2.69868E-001	3.61745E-007	-3.18748E-007	6.80493E-007	-2.95000E-001	3.27706E-004	7	..........a	-327.68
	41	0.42	-2.43364E-001	-2.92373E-001	-2.67868E-001	3.63378E-007	-3.17581E-007	6.80959E-007	-2.93000E-001	3.21039E-004	7	..........a	-327.68
	42	0.43	-2.41318E-001	-2.90413E-001	-2.65865E-001	3.66712E-007	-3.20048E-007	6.86760E-007	-2.91000E-001	3.72706E-004	7	..........a	-327.68
	43	0.44	-2.39414E-001	-2.88403E-001	-2.63908E-001	3.67679E-007	-3.21882E-007	6.89561E-007	-2.89000E-001	3.24373E-004	7	..........a	-327.68
	44	0.45	-2.37393E-001	-2.86319E-001	-2.61856E-001	3.70146E-007	-3.24649E-007	6.94795E-007	-2.87000E-001	3.22706E-004	7	..........a	-327.68
	45	0.46	-2.35384E-001	-2.84343E-001	-2.59863E-001	3.69846E-007	-3.24749E-007	6.94595E-007	-2.85000E-001	3.27706E-004	7	..........a	-327.68
	46	0.47	-2.33339E-001	-2.82418E-001	-2.57878E-001	3.72179E-007	-3.24382E-007	6.96562E-007	-2.83000E-001	3.37706E-004	7	..........a	-327.68
	47	0.48	-2.31373E-001	-2.80421E-001	-2.55897E-001	3.72513E-007	-3.25682E-007	6.98195E-007	-2.81000E-001	3.31039E-004	7	..........a	-327.68
	48	0.49	-2.29393E-001	-2.78334E-001	-2.53863E-001	3.72279E-007	-3.23582E-007	6.95862E-007	-2.79000E-001	3.47706E-004	7	..........a	-327.68
	49	0.5	-2.27359E-001	-2.76369E-001	-2.51864E-001	3.72079E-007	-3.23449E-007	6.95528E-007	-2.77000E-001	3.66039E-004	7	..........a	-327.68
	50	0.51	-2.25341E-001	-2.74411E-001	-2.49876E-001	3.69046E-007	-3.18815E-007	6.87860E-007	-2.75000E-001	3.47706E-004	7	..........a	-327.68
	51	0.52	-2.23381E-001	-2.72393E-001	-2.47887E-001	3.68212E-007	-3.17448E-007	6.85660E-007	-2.73000E-001	3.31039E-004	7	..........a	-327.68
	52	0.53	-2.21359E-001	-2.70363E-001	-2.45861E-001	3.64978E-007	-3.14781E-007	6.79759E-007	-2.71000E-001	3.01039E-004	7	..........a	-327.68
	53	0.54	-2.19366E-001	-2.68394E-001	-2.43880E-001	3.62345E-007	-3.08980E-007	6.71325E-007	-2.69000E-001	3.12706E-004	7	..........a	-327.68
	54	0.55	-2.17348E-001	-2.66404E-001	-2.41876E-001	3.60878E-007	-3.08380E-007	6.69258E-007	-2.67000E-001	3.22706E-004	7	..........a	-327.68
	55	0.56	-2.15408E-001	-2.64438E-001	-2.39923E-001	3.58244E-007	-3.02412E-007	6.60657E-007	-2.65000E-001	3.24373E-004	7	..........a	-327.68
	56	0.57	-2.13383E-001	-2.62361E-001	-2.37872E-001	3.52477E-007	-2.98945E-007	6.51422E-007	-2.63000E-001	3.01039E-004	7	..........a	-327.68
	57	0.58	-2.11369E-001	-2.60373E-001	-2.35871E-001	3.50443E-007	-2.94878E-007	6.45321E-007	-2.61000E-001	3.59373E-004	7	..........a	-327.68
	58	0.59	-2.09298E-001	-2.58384E-001	-2.33841E-001	3.46343E-007	-2.89177E-007	6.35520E-007	-2.59000E-001	3.01039E-004	7	..........a	-327.68
	59	0.6	-2.07401E-001	-2.56408E-001	-2.31904E-001	3.42842E-007	-2.86844E-007	6.29686E-007	-2.57000E-001	3.39373E-004	7	..........a	-327.68
	60	0.61	-2.05419E-001	-2.54346E-001	-2.29883E-001	3.39408E-007	-2.80743E-007	6.20151E-007	-2.55000E-001	3.41039E-004	7	..........a	-327.68
	61	0.62	-2.03386E-001	-2.52413E-001	-2.27899E-001	3.33741E-007	-2.79243E-007	6.12984E-007	-2.53000E-001	3.41039E-004	7	..........a	-327.68
	62	0.63	-2.01336E-001	-2.50418E-001	-2.25877E-001	3.36775E-007	-2.74775E-007	6.11550E-007	-2.51000E-001	3.16039E-004	7	..........a	-327.68
	63	0.64	-1.99366E-001	-2.48414E-001	-2.23890E-001	3.30640E-007	-2.68041E-007	5.98682E-007	-2.49000E-001	3.42706E-004	7	..........a	-327.68
	64	0.65	-1.97383E-001	-2.46368E-001	-2.21875E-001	3.28573E-007	-2.66508E-007	5.95081E-007	-2.47000E-001	3.14373E-004	7	..........a	-327.68
	65	0.66	-1.95394E-001	-2.44386E-001	-2.19890E-001	3.23706E-007	-2.57773E-007	5.81479E-007	-2.45000E-001	3.09373E-004	7	..........a	-327.68
	66	0.67	-1.93363E-001	-2.42438E-001	-2.17900E-001	3.19739E-007	-2.54039E-007	5.73778E-007	-2.43000E-001	3.32706E-004	7	..........a	-327.68
	67	0.68	-1.91381E-001	-2.40394E-001	-2.15888E-001	3.16672E-007	-2.49205E-007	5.65877E-007	-2.41000E-001	3.17706E-004	7	..........a	-327.68
	68	0.69	-1.89388E-001	-2.38353E-001	-2.13870E-001	3.12605E-007	-2.44605E-007	5.57209E-007	-2.39000E-001	3.01039E-004	7	..........a	-327.68
	69	0.7	-1.87306E-001	-2.36369E-001	-2.11838E-001	3.12471E-007	-2.43905E-007	5.56376E-007	-2.37000E-001	3.49373E-004	7	..........a	-327.68
	70	0.71	-1.85338E-001	-2.34401E-001	-2.09869E-001	3.10704E-007	-2.40337E-007	5.51042E-007	-2.35000E-001	3.07706E-004	7	..........a	-327.68
	71	0.72	-1.83378E-001	-2.32419E-001	-2.07898E-001	3.07737E-007	-2.37470E-007	5.45208E-007	-2.33000E-001	3.29373E-004	7	..........a	-327.68
	72	0.73	-1.81326E-001	-2.30361E-001	-2.05843E-001	3.06971E-007	-2.35337E-007	5.42307E-007	-2.31000E-001	3.14373E-004	7	..........a	-327.68
	73	0.74	-1.79299E-001	-2.28383E-001	-2.03841E-001	3.05537E-007	-2.30069E-007	5.35606E-007	-2.29000E-001	3.52706E-004	7	..........a	-327.68
	74	0.75	-1.77324E-001	-2.26393E-001	-2.01858E-001	3.04404E-007	-2.26569E-007	5.30972E-007	-2.27000E-001	3.89373E-004	7	..........a	-327.68
	75	0.76	-1.75361E-001	-2.24404E-001	-1.99883E-001	3.00170E-007	-2.23902E-007	5.24071E-007	-2.25000E-001	3.42706E-004	7	..........a	-327.68
	76	0.77	-1.73378E-001	-2.22388E-001	-1.97883E-001	2.97903E-007	-2.22368E-007	5.20271E-007	-2.23000E-001	3.27706E-004	7	..........a	-327.68
	77	0.78	-1.71314E-001	-2.20364E-001	-1.95839E-001	2.98669E-007	-2.17701E-007	5.16370E-007	-2.21000E-001	3.16039E-004	7	..........a	-327.68
	78	0.79	-1.69298E-001	-2.18359E-001	-1.93828E-001	2.97736E-007	-2.17134E-007	5.14870E-007	-2.19000E-001	3.12706E-004	7	..........a	-327.68
	79	0.8	-1.67364E-001	-2.16381E-001	-1.91873E-001	2.96036E-007	-2.13834E-007	5.09869E-007	-2.17000E-001	3.26039E-004	7	..........a	-327.68
	80	0.81	-1.65383E-001	-2.14356E-001	-1.89869E-001	2.94636E-007	-2.16367E-007	5.11003E-007	-2.15000E-001	3.42706E-004	7	..........a	-327.68
	81	0.82	-1.63273E-001	-2.12374E-001	-1.87823E-001	2.94035E-007	-2.11800E-007	5.05836E-007	-2.13000E-001	3.34373E-004	7	..........a	-327.68
	82	0.83	-1.61326E-001	-2.10418E-001	-1.85872E-001	2.93302E-007	-2.11433E-007	5.04735E-007	-2.11000E-001	3.69373E-004	7	..........a	-327.68
	83	0.84	-1.59374E-001	-2.08403E-001	-1.83888E-001	2.93069E-007	-2.09200E-007	5.02268E-007	-2.09000E-001	3.27706E-004	7	..........a	-327.68
	84	0.85	-1.57358E-001	-2.06348E-001	-1.81853E-001	2.92102E-007	-2.07300E-007	4.99401E-007	-2.07000E-001	3.54373E-004	7	..........a	-327.68
	85	0.86	-1.55323E-001	-2.04386E-001	-1.79854E-001	2.92069E-007	-2.06766E-007	4.98835E-007	-2.05000E-001	3.52706E-004	7	..........a	-327.68
	86	0.87	-1.53304E-001	-2.02411E-001	-1.77858E-001	2.91635E-007	-2.06466E-007	4.98101E-007	-2.03000E-001	3.14373E-004	7	..........a	-327.68
	87	0.88	-1.51373E-001	-2.00408E-001	-1.75890E-001	2.92969E-007	-2.05899E-007	4.98868E-007	-2.01000E-001	3.07706E-004	7	..........a	-327.68
	88	0.89	-1.49354E-001	-1.98369E-001	-1.73862E-001	2.92935E-007	-2.06233E-007	4.99168E-007	-1.99000E-001	3.12706E-004	7	..........a	-327.68
	89	0.9	-1.47364E-001	-1.96399E-001	-1.71882E-001	2.92635E-007	-2.05299E-007	4.97935E-007	-1.97000E-001	3.51039E-004	7	..........a	-327.68
	90	0.91	-1.45313E-001	-1.94399E-001	-1.69856E-001	2.92002E-007	-2.04899E-007	4.96901E-007	-1.95000E-001	3.36039E-004	7	..........a	-327.68
	91	0.92	-1.43341E-001	-1.92394E-001	-1.67868E-001	2.89035E-007	-2.01065E-007	4.90100E-007	-1.93000E-001	3.62706E-004	7	..........a	-327.68
	92	0.93	-1.41378E-001	-1.90318E-001	-1.65848E-001	2.89535E-007	-2.00665E-007	4.90200E-007	-1.91000E-001	3.39373E-004	7	..........a	-327.68
	93	0.94	-1.39319E-001	-1.88361E-001	-1.63840E-001	2.87535E-007	-1.97865E-007	4.85399E-007	-1.89000E-001	3.32706E-004	7	..........a	-327.68
	94	0.95	-1.37296E-001	-1.86413E-001	-1.61854E-001	2.88268E-007	-1.98398E-007	4.86666E-007	-1.87000E-001	3.17706E-004	7	..........a	-327.68
	95	0.96	-1.35381E-001	-1.84424E-001	-1.59903E-001	2.89301E-007	-2.00699E-007	4.90000E-007	-1.85000E-001	3.16039E-004	7	..........a	-327.68
	96	0.97	-1.33383E-001	-1.82319E-001	-1.57851E-001	2.88868E-007	-1.98232E-007	4.87100E-007	-1.83000E-001	3.04373E-004	7	..........a	-327.68
	97	0.98	-1.31338E-001	-1.80361E-001	-1.55849E-001	2.91435E-007	-2.00832E-007	4.92267E-007	-1.81000E-001	3.69373E-004	7	..........a	-327.68
	98	0.99	-1.29309E-001	-1.78423E-001	-1.53866E-001	2.90768E-007	-1.99598E-007	4.90367E-007	-1.79000E-001	3.62706E-004	7	..........a	-327.68
	99	1	-1.27366E-001	-1.76413E-001	-1.51889E-001	2.90102E-007	-1.97998E-007	4.88100E-007	-1.77000E-001	3.64373E-004	7	..........a	-327.68
	100	1.01	-1.25359E-001	-1.74381E-001	-1.49870E-001	2.90968E-007	-1.98698E-007	4.89667E-007	-1.75000E-001	3.22706E-004	7	..........a	-327.68
