EXPLAIN
TAG	SQUARE_WAVE
TITLE	LABEL	Square Wave Voltammetry	Test Identifier
DATE	LABEL	8/31/2020	Date
TIME	LABEL	12:35:41	Time
NOTES	NOTES	1	Notes...
	
PSTAT	PSTAT	REF600-24079	Potentiostat
VINIT	QUANT	-3.50000E-001	Initial E (V)
VFINAL	QUANT	-1.50000E-001	Final E (V)
STEPSIZE	QUANT	2.00000E+000	Step Size (mV)
TIMERRES	QUANT	3.33340E-005	&Timer Resolution
FREQUENCY	QUANT	1.00000E+001	Frequency (Hz)
PULSESIZE	QUANT	2.50000E+001	Pulse Size E (mV)
PULSEON	QUANT	1.00000E-001	Pulse &Time (s)
NOISEREJECT	TOGGLE	F	Noise Rejection
AREA	QUANT	2.00000E-002	Sample Area (cm^2)
IMODE	SELECTOR	1	I/E Range Mode
IRANGE	QUANT	1.00000E-003	Max Current (mA)
EQDELAY	IQUANT	10	Equil. Time (s)
IRCOMP	SELECTOR	0	IRComp
PFCOR	QUANT	5.00000E+001	PF Corr. (ohm)
CYCLES	IQUANT	101	C&ycles (#)
ELECTRODETYPE	SELECTOR	0	Electrode Type
STRIPPING	TOGGLE	F	Used for Stripping
POLARITY	TOGGLE	F	Signal Polarity
LINEFREQ	IQUANT	60	Line Frequency (Hz)
INTPERIOD	QUANT	3.3334E-005	Integration Period (s)
SEQUENCER	TOGGLE	TRUE	Run as Sequence
PSTATMODEL	IQUANT	4	Pstat Model
PSTATSECTION	LABEL	REF600-24079	Pstat Section
PSTATSERIALNO	LABEL	24079	Pstat Serial Number
CTRLMODE	IQUANT	1	Control Mode
ELECTROMETER	IQUANT	0	RE=0 or CS=1
IESTAB	IQUANT	2	I/E Stability
CASPEED	IQUANT	6	Control Amp Speed
CONVENTION	IQUANT	1	Current Convention
ICHRANGE	IQUANT	2	Ich Range
ICHRANGEMODE	TOGGLE	F	Ich Auto Range
ICHOFFSETENABLE	TOGGLE	F	Ich Offset Enable
ICHOFFSET	QUANT	0	Ich Offset (V)
ICHFILTER	IQUANT	2	Ich Filter
VCHRANGE	IQUANT	2	Vch Range
VCHRANGEMODE	TOGGLE	F	Vch Auto Range
VCHOFFSETENABLE	TOGGLE	F	Vch Offset Enable
VCHOFFSET	QUANT	0	Vch Offset (V)
VCHFILTER	IQUANT	2	Vch Filter
ACHRANGE	IQUANT	2	Ach Range
ACHOFFSETENABLE	TOGGLE	F	Ach Offset Enable
ACHOFFSET	QUANT	0	Ach Offset (V)
ACHFILTER	IQUANT	1	Ach Filter
IERANGELOWERLIMIT	IQUANT	1	I/E Range Lower Limit
IERANGEMODE	TOGGLE	F	I/E AutoRange
IERANGE	IQUANT	6	I/E Range
POSFEEDENABLE	TOGGLE	F	Positive Feedback IR Comp
POSFEEDRESISTANCE	QUANT	0	Positive Feedback Resistance (ohm)
ACHSELECT	IQUANT	0	Ach Select
SENSECABLEID	IQUANT	13	Sense Cable ID
PWRCABLEID	IQUANT	13	Power Cable ID
DCCALDATE	LABEL	6/30/2020	DC Calibration Date
ACCALDATE	LABEL	6/30/2020	AC Calibration Date
THERMOSELECT	IQUANT	1	Thermo Select
FRAMEWORKVERSION	LABEL	7.8.2	Framework Version
INSTRUMENTVERSION	LABEL	4.40	Instrument Version
CURVE	TABLE	101
	Pt	T	Vfwd	Vrev	Vstep	Ifwd	Irev	Idif	Sig	Ach	IERange	Over	Temp
	#	s	V	V	V	A	A	A	V	V	#	bits	deg C
	0	0.1	-3.24831E-001	-3.74882E-001	-3.49857E-001	-1.14335E-008	-4.60116E-008	3.45781E-008	-3.75000E-001	3.66039E-004	6	..........a	-327.68
	1	0.2	-3.22843E-001	-3.72876E-001	-3.47859E-001	3.03730E-009	-4.06162E-008	4.36536E-008	-3.73000E-001	3.56873E-004	6	..........a	-327.68
	2	0.3	-3.20880E-001	-3.70776E-001	-3.45828E-001	5.67597E-009	-3.85437E-008	4.42196E-008	-3.71000E-001	3.45706E-004	6	..........a	-327.68
	3	0.4	-3.18891E-001	-3.68866E-001	-3.43878E-001	7.21683E-009	-3.71135E-008	4.43303E-008	-3.69000E-001	3.40206E-004	6	..........a	-327.68
	4	0.5	-3.16711E-001	-3.66922E-001	-3.41816E-001	8.12895E-009	-3.63234E-008	4.44523E-008	-3.67000E-001	3.39873E-004	6	..........a	-327.68
	5	0.6	-3.14860E-001	-3.64860E-001	-3.39860E-001	8.99673E-009	-3.54939E-008	4.44907E-008	-3.65000E-001	3.44706E-004	6	..........a	-327.68
	6	0.7	-3.12873E-001	-3.62838E-001	-3.37856E-001	9.65215E-009	-3.50455E-008	4.46977E-008	-3.63000E-001	3.41706E-004	6	..........a	-327.68
	7	0.8	-3.10884E-001	-3.60864E-001	-3.35874E-001	1.05316E-008	-3.45335E-008	4.50651E-008	-3.61000E-001	3.52206E-004	6	..........a	-327.68
	8	0.9	-3.08817E-001	-3.58890E-001	-3.33853E-001	1.11323E-008	-3.40808E-008	4.52131E-008	-3.59000E-001	3.35206E-004	6	..........a	-327.68
	9	1	-3.06843E-001	-3.56829E-001	-3.31836E-001	1.19054E-008	-3.34733E-008	4.53788E-008	-3.57000E-001	3.48206E-004	6	..........a	-327.68
	10	1.1	-3.04872E-001	-3.54848E-001	-3.29860E-001	1.23445E-008	-3.33903E-008	4.57348E-008	-3.55000E-001	3.42873E-004	6	..........a	-327.68
	11	1.2	-3.02884E-001	-3.52885E-001	-3.27884E-001	1.30329E-008	-3.29109E-008	4.59438E-008	-3.53000E-001	3.35873E-004	6	..........a	-327.68
	12	1.3	-3.00863E-001	-3.50881E-001	-3.25872E-001	1.38924E-008	-3.26086E-008	4.65009E-008	-3.51000E-001	3.26706E-004	6	..........a	-327.68
	13	1.4	-2.98850E-001	-3.48874E-001	-3.23862E-001	1.46078E-008	-3.25842E-008	4.71920E-008	-3.49000E-001	3.42039E-004	6	..........a	-327.68
	14	1.5	-2.96871E-001	-3.46864E-001	-3.21868E-001	1.55489E-008	-3.25366E-008	4.80855E-008	-3.47000E-001	3.49706E-004	6	..........a	-327.68
	15	1.6	-2.94883E-001	-3.44872E-001	-3.19878E-001	1.64427E-008	-3.24906E-008	4.89332E-008	-3.45000E-001	3.39206E-004	6	..........a	-327.68
	16	1.7	-2.92748E-001	-3.42913E-001	-3.17831E-001	1.74381E-008	-3.24212E-008	4.98593E-008	-3.43000E-001	3.35039E-004	6	..........a	-327.68
	17	1.8	-2.90806E-001	-3.40868E-001	-3.15837E-001	1.84533E-008	-3.22349E-008	5.06881E-008	-3.41000E-001	3.40706E-004	6	..........a	-327.68
	18	1.9	-2.88905E-001	-3.38857E-001	-3.13881E-001	1.93947E-008	-3.24042E-008	5.17989E-008	-3.39000E-001	3.39373E-004	6	..........a	-327.68
	19	2	-2.86892E-001	-3.36863E-001	-3.11877E-001	2.06069E-008	-3.27122E-008	5.33191E-008	-3.37000E-001	3.47539E-004	6	..........a	-327.68
	20	2.1	-2.84801E-001	-3.34890E-001	-3.09846E-001	2.18604E-008	-3.29246E-008	5.47850E-008	-3.35000E-001	3.38873E-004	6	..........a	-327.68
	21	2.2	-2.82823E-001	-3.32814E-001	-3.07818E-001	2.32399E-008	-3.34127E-008	5.66525E-008	-3.33000E-001	3.49373E-004	6	..........a	-327.68
	22	2.3	-2.80901E-001	-3.30831E-001	-3.05866E-001	2.44757E-008	-3.38474E-008	5.83231E-008	-3.31000E-001	3.36873E-004	6	..........a	-327.68
	23	2.4	-2.78880E-001	-3.28864E-001	-3.03872E-001	2.60909E-008	-3.42398E-008	6.03307E-008	-3.29000E-001	3.50873E-004	6	..........a	-327.68
	24	2.5	-2.76850E-001	-3.26889E-001	-3.01869E-001	2.76181E-008	-3.47395E-008	6.23576E-008	-3.27000E-001	3.54206E-004	6	..........a	-327.68
	25	2.6	-2.74846E-001	-3.24861E-001	-2.99854E-001	2.91940E-008	-3.55693E-008	6.47632E-008	-3.25000E-001	3.48039E-004	6	..........a	-327.68
	26	2.7	-2.72875E-001	-3.22843E-001	-2.97859E-001	3.07898E-008	-3.64347E-008	6.72245E-008	-3.23000E-001	3.58873E-004	6	..........a	-327.68
	27	2.8	-2.70883E-001	-3.20876E-001	-2.95879E-001	3.24947E-008	-3.71521E-008	6.96469E-008	-3.21000E-001	3.56039E-004	6	..........a	-327.68
	28	2.9	-2.68871E-001	-3.18876E-001	-2.93874E-001	3.41299E-008	-3.81399E-008	7.22699E-008	-3.19000E-001	3.62873E-004	6	..........a	-327.68
	29	3	-2.66813E-001	-3.16665E-001	-2.91739E-001	3.58145E-008	-3.92911E-008	7.51056E-008	-3.17000E-001	3.74206E-004	6	..........a	-327.68
	30	3.1	-2.64895E-001	-3.14876E-001	-2.89886E-001	3.74240E-008	-4.04896E-008	7.79136E-008	-3.15000E-001	3.55873E-004	6	..........a	-327.68
	31	3.2	-2.62888E-001	-3.12897E-001	-2.87892E-001	3.88525E-008	-4.17771E-008	8.06296E-008	-3.13000E-001	3.64873E-004	6	..........a	-327.68
	32	3.3	-2.60795E-001	-3.10882E-001	-2.85839E-001	4.04224E-008	-4.31236E-008	8.35460E-008	-3.11000E-001	3.55039E-004	6	..........a	-327.68
	33	3.4	-2.58835E-001	-3.08870E-001	-2.83852E-001	4.16742E-008	-4.47454E-008	8.64197E-008	-3.09000E-001	3.61206E-004	6	..........a	-327.68
	34	3.5	-2.56856E-001	-3.06858E-001	-2.81857E-001	4.32668E-008	-4.60219E-008	8.92887E-008	-3.07000E-001	3.54206E-004	6	..........a	-327.68
	35	3.6	-2.54896E-001	-3.04901E-001	-2.79899E-001	4.40969E-008	-4.76705E-008	9.17673E-008	-3.05000E-001	3.51373E-004	6	..........a	-327.68
	36	3.7	-2.52824E-001	-3.02892E-001	-2.77858E-001	4.50006E-008	-4.90873E-008	9.40880E-008	-3.03000E-001	3.56206E-004	6	..........a	-327.68
	37	3.8	-2.50838E-001	-3.00885E-001	-2.75862E-001	4.56804E-008	-5.06182E-008	9.62986E-008	-3.01000E-001	3.59373E-004	6	..........a	-327.68
	38	3.9	-2.48872E-001	-2.98870E-001	-2.73871E-001	4.64095E-008	-5.19267E-008	9.83362E-008	-2.99000E-001	3.51539E-004	6	..........a	-327.68
	39	4	-2.46871E-001	-2.96882E-001	-2.71877E-001	4.67242E-008	-5.34422E-008	1.00166E-007	-2.97000E-001	3.59539E-004	6	..........a	-327.68
	40	4.1	-2.44872E-001	-2.94854E-001	-2.69863E-001	4.68319E-008	-5.45890E-008	1.01421E-007	-2.95000E-001	3.58706E-004	6	..........a	-327.68
	41	4.2	-2.42794E-001	-2.92754E-001	-2.67774E-001	4.68599E-008	-5.57945E-008	1.02654E-007	-2.93000E-001	3.54873E-004	6	..........a	-327.68
	42	4.3	-2.40873E-001	-2.90837E-001	-2.65855E-001	4.66372E-008	-5.69173E-008	1.03554E-007	-2.91000E-001	3.77873E-004	6	..........a	-327.68
	43	4.4	-2.38896E-001	-2.88906E-001	-2.63901E-001	4.62045E-008	-5.77781E-008	1.03983E-007	-2.89000E-001	3.76039E-004	6	..........a	-327.68
	44	4.5	-2.36845E-001	-2.86874E-001	-2.61859E-001	4.58244E-008	-5.84055E-008	1.04230E-007	-2.87000E-001	3.75539E-004	6	..........a	-327.68
	45	4.6	-2.34828E-001	-2.84854E-001	-2.59841E-001	4.49893E-008	-5.89623E-008	1.03952E-007	-2.85000E-001	3.62539E-004	6	..........a	-327.68
	46	4.7	-2.32848E-001	-2.82838E-001	-2.57843E-001	4.42835E-008	-5.90403E-008	1.03324E-007	-2.83000E-001	3.55706E-004	6	..........a	-327.68
	47	4.8	-2.30865E-001	-2.80909E-001	-2.55887E-001	4.33741E-008	-5.90416E-008	1.02416E-007	-2.81000E-001	3.69206E-004	6	..........a	-327.68
	48	4.9	-2.28781E-001	-2.78875E-001	-2.53828E-001	4.25940E-008	-5.88839E-008	1.01478E-007	-2.79000E-001	3.58706E-004	6	..........a	-327.68
	49	5	-2.26825E-001	-2.76859E-001	-2.51842E-001	4.13972E-008	-5.83945E-008	9.97917E-008	-2.77000E-001	3.67373E-004	6	..........a	-327.68
	50	5.1	-2.24862E-001	-2.74857E-001	-2.49859E-001	4.02474E-008	-5.77834E-008	9.80308E-008	-2.75000E-001	3.59873E-004	6	..........a	-327.68
	51	5.2	-2.22864E-001	-2.72865E-001	-2.47865E-001	3.93306E-008	-5.68630E-008	9.61936E-008	-2.73000E-001	3.73539E-004	6	..........a	-327.68
	52	5.3	-2.20856E-001	-2.70835E-001	-2.45845E-001	3.80568E-008	-5.56162E-008	9.36729E-008	-2.71000E-001	3.68373E-004	6	..........a	-327.68
	53	5.4	-2.18850E-001	-2.68862E-001	-2.43856E-001	3.68393E-008	-5.44623E-008	9.13016E-008	-2.69000E-001	3.66373E-004	6	..........a	-327.68
	54	5.5	-2.16892E-001	-2.66818E-001	-2.41855E-001	3.57745E-008	-5.27155E-008	8.84899E-008	-2.67000E-001	3.66539E-004	6	..........a	-327.68
	55	5.6	-2.14898E-001	-2.64906E-001	-2.39902E-001	3.47737E-008	-5.14040E-008	8.61776E-008	-2.65000E-001	3.52706E-004	6	..........a	-327.68
	56	5.7	-2.12772E-001	-2.62880E-001	-2.37826E-001	3.37355E-008	-4.96371E-008	8.33726E-008	-2.63000E-001	3.50039E-004	6	..........a	-327.68
	57	5.8	-2.10852E-001	-2.60844E-001	-2.35848E-001	3.27461E-008	-4.78188E-008	8.05649E-008	-2.61000E-001	3.62039E-004	6	..........a	-327.68
	58	5.9	-2.08866E-001	-2.58831E-001	-2.33849E-001	3.18046E-008	-4.59789E-008	7.77836E-008	-2.59000E-001	3.61706E-004	6	..........a	-327.68
	59	6	-2.06876E-001	-2.56866E-001	-2.31871E-001	3.08138E-008	-4.41660E-008	7.49799E-008	-2.57000E-001	3.65206E-004	6	..........a	-327.68
	60	6.1	-2.04815E-001	-2.54892E-001	-2.29854E-001	3.00121E-008	-4.22718E-008	7.22839E-008	-2.55000E-001	3.52539E-004	6	..........a	-327.68
	61	6.2	-2.02827E-001	-2.52790E-001	-2.27808E-001	2.93957E-008	-4.05026E-008	6.98982E-008	-2.53000E-001	3.56206E-004	6	..........a	-327.68
	62	6.3	-2.00867E-001	-2.50842E-001	-2.25854E-001	2.84942E-008	-3.85820E-008	6.70762E-008	-2.51000E-001	3.58873E-004	6	..........a	-327.68
	63	6.4	-1.98877E-001	-2.48881E-001	-2.23879E-001	2.77444E-008	-3.66017E-008	6.43462E-008	-2.49000E-001	3.51039E-004	6	..........a	-327.68
	64	6.5	-1.96857E-001	-2.46873E-001	-2.21865E-001	2.70937E-008	-3.50619E-008	6.21556E-008	-2.47000E-001	3.56539E-004	6	..........a	-327.68
	65	6.6	-1.94848E-001	-2.44868E-001	-2.19858E-001	2.65103E-008	-3.34500E-008	5.99603E-008	-2.45000E-001	3.51039E-004	6	..........a	-327.68
	66	6.7	-1.92866E-001	-2.42803E-001	-2.17834E-001	2.62092E-008	-3.19131E-008	5.81224E-008	-2.43000E-001	3.46206E-004	6	..........a	-327.68
	67	6.8	-1.90905E-001	-2.40875E-001	-2.15890E-001	2.55145E-008	-3.04470E-008	5.59615E-008	-2.41000E-001	3.51039E-004	6	..........a	-327.68
	68	6.9	-1.88760E-001	-2.38894E-001	-2.13827E-001	2.51728E-008	-2.89518E-008	5.41246E-008	-2.39000E-001	3.54539E-004	6	..........a	-327.68
	69	7	-1.86842E-001	-2.36845E-001	-2.11843E-001	2.46027E-008	-2.77443E-008	5.23470E-008	-2.37000E-001	3.53039E-004	6	..........a	-327.68
	70	7.1	-1.84877E-001	-2.34821E-001	-2.09849E-001	2.44230E-008	-2.64324E-008	5.08555E-008	-2.35000E-001	3.36206E-004	6	..........a	-327.68
	71	7.2	-1.82842E-001	-2.32869E-001	-2.07855E-001	2.39836E-008	-2.54573E-008	4.94410E-008	-2.33000E-001	3.42873E-004	6	..........a	-327.68
	72	7.3	-1.80790E-001	-2.30873E-001	-2.05831E-001	2.38273E-008	-2.46025E-008	4.84298E-008	-2.31000E-001	3.52873E-004	6	..........a	-327.68
	73	7.4	-1.78820E-001	-2.28812E-001	-2.03816E-001	2.35056E-008	-2.36644E-008	4.71700E-008	-2.29000E-001	3.63373E-004	6	..........a	-327.68
	74	7.5	-1.76843E-001	-2.26827E-001	-2.01835E-001	2.33199E-008	-2.28763E-008	4.61962E-008	-2.27000E-001	3.55873E-004	6	..........a	-327.68
	75	7.6	-1.74865E-001	-2.24871E-001	-1.99868E-001	2.31769E-008	-2.21296E-008	4.53064E-008	-2.25000E-001	3.61039E-004	6	..........a	-327.68
	76	7.7	-1.72836E-001	-2.22876E-001	-1.97856E-001	2.28685E-008	-2.14655E-008	4.43340E-008	-2.23000E-001	3.68706E-004	6	..........a	-327.68
	77	7.8	-1.70832E-001	-2.20859E-001	-1.95845E-001	2.28635E-008	-2.09017E-008	4.37652E-008	-2.21000E-001	3.57539E-004	6	..........a	-327.68
	78	7.9	-1.68865E-001	-2.18849E-001	-1.93857E-001	2.28268E-008	-2.02580E-008	4.30848E-008	-2.19000E-001	3.56206E-004	6	..........a	-327.68
	79	8	-1.66867E-001	-2.16890E-001	-1.91878E-001	2.26961E-008	-1.96126E-008	4.23087E-008	-2.17000E-001	3.45539E-004	6	..........a	-327.68
	80	8.1	-1.64707E-001	-2.14894E-001	-1.89800E-001	2.25968E-008	-1.94126E-008	4.20093E-008	-2.15000E-001	3.48206E-004	6	..........a	-327.68
	81	8.2	-1.62817E-001	-2.12853E-001	-1.87835E-001	2.24118E-008	-1.88708E-008	4.12826E-008	-2.13000E-001	3.44039E-004	6	..........a	-327.68
	82	8.3	-1.60884E-001	-2.10851E-001	-1.85867E-001	2.24274E-008	-1.84154E-008	4.08429E-008	-2.11000E-001	3.52039E-004	6	..........a	-327.68
	83	8.4	-1.58865E-001	-2.08863E-001	-1.83864E-001	2.25214E-008	-1.82694E-008	4.07909E-008	-2.09000E-001	3.69206E-004	6	..........a	-327.68
	84	8.5	-1.56797E-001	-2.06856E-001	-1.81826E-001	2.25134E-008	-1.79117E-008	4.04251E-008	-2.07000E-001	3.57039E-004	6	..........a	-327.68
	85	8.6	-1.54810E-001	-2.04814E-001	-1.79812E-001	2.24081E-008	-1.76087E-008	4.00168E-008	-2.05000E-001	3.51039E-004	6	..........a	-327.68
	86	8.7	-1.52866E-001	-2.02830E-001	-1.77848E-001	2.24831E-008	-1.72863E-008	3.97694E-008	-2.03000E-001	3.56039E-004	6	..........a	-327.68
	87	8.8	-1.50869E-001	-2.00858E-001	-1.75864E-001	2.24564E-008	-1.71863E-008	3.96427E-008	-2.01000E-001	3.58539E-004	6	..........a	-327.68
	88	8.9	-1.48825E-001	-1.98872E-001	-1.73848E-001	2.23554E-008	-1.69269E-008	3.92823E-008	-1.99000E-001	3.40873E-004	6	..........a	-327.68
	89	9	-1.46828E-001	-1.96839E-001	-1.71834E-001	2.24094E-008	-1.66849E-008	3.90943E-008	-1.97000E-001	3.50039E-004	6	..........a	-327.68
	90	9.1	-1.44852E-001	-1.94855E-001	-1.69854E-001	2.24108E-008	-1.63795E-008	3.87903E-008	-1.95000E-001	3.43706E-004	6	..........a	-327.68
	91	9.2	-1.42858E-001	-1.92865E-001	-1.67862E-001	2.26181E-008	-1.62285E-008	3.88466E-008	-1.93000E-001	3.51539E-004	6	..........a	-327.68
	92	9.3	-1.40858E-001	-1.90906E-001	-1.65882E-001	2.25781E-008	-1.59975E-008	3.85756E-008	-1.91000E-001	3.47873E-004	6	..........a	-327.68
	93	9.4	-1.38800E-001	-1.88715E-001	-1.63758E-001	2.25985E-008	-1.60008E-008	3.85992E-008	-1.89000E-001	3.58539E-004	6	..........a	-327.68
	94	9.5	-1.36853E-001	-1.86836E-001	-1.61845E-001	2.27648E-008	-1.58088E-008	3.85736E-008	-1.87000E-001	3.60539E-004	6	..........a	-327.68
	95	9.6	-1.34864E-001	-1.84871E-001	-1.59867E-001	2.26951E-008	-1.55577E-008	3.82529E-008	-1.85000E-001	3.67039E-004	6	..........a	-327.68
	96	9.7	-1.32756E-001	-1.82861E-001	-1.57809E-001	2.27538E-008	-1.54671E-008	3.82209E-008	-1.83000E-001	3.54873E-004	6	..........a	-327.68
	97	9.8	-1.30798E-001	-1.80764E-001	-1.55781E-001	2.28538E-008	-1.53657E-008	3.82195E-008	-1.81000E-001	3.56373E-004	6	..........a	-327.68
	98	9.9	-1.28832E-001	-1.78828E-001	-1.53830E-001	2.28858E-008	-1.52184E-008	3.81042E-008	-1.79000E-001	3.71206E-004	6	..........a	-327.68
	99	10	-1.26878E-001	-1.76846E-001	-1.51862E-001	2.28798E-008	-1.51974E-008	3.80772E-008	-1.77000E-001	3.62706E-004	6	..........a	-327.68
	100	10.1	-1.24797E-001	-1.74872E-001	-1.49834E-001	2.30488E-008	-1.50273E-008	3.80762E-008	-1.75000E-001	3.54539E-004	6	..........a	-327.68
