EXPLAIN
TAG	SQUARE_WAVE
TITLE	LABEL	Square Wave Voltammetry	Test Identifier
DATE	LABEL	8/25/2020	Date
TIME	LABEL	14:51:32	Time
NOTES	NOTES	1	Notes...
	
PSTAT	PSTAT	REF600-24079	Potentiostat
VINIT	QUANT	-3.50000E-001	Initial E (V)
VFINAL	QUANT	-1.50000E-001	Final E (V)
STEPSIZE	QUANT	2.00000E+000	Step Size (mV)
TIMERRES	QUANT	3.33340E-005	&Timer Resolution
FREQUENCY	QUANT	1.00000E+001	Frequency (Hz)
PULSESIZE	QUANT	2.50000E+001	Pulse Size E (mV)
PULSEON	QUANT	1.00000E-001	Pulse &Time (s)
NOISEREJECT	TOGGLE	F	Noise Rejection
AREA	QUANT	2.00000E-002	Sample Area (cm^2)
IMODE	SELECTOR	1	I/E Range Mode
IRANGE	QUANT	1.00000E-003	Max Current (mA)
EQDELAY	IQUANT	10	Equil. Time (s)
IRCOMP	SELECTOR	0	IRComp
PFCOR	QUANT	5.00000E+001	PF Corr. (ohm)
CYCLES	IQUANT	101	C&ycles (#)
ELECTRODETYPE	SELECTOR	0	Electrode Type
STRIPPING	TOGGLE	F	Used for Stripping
POLARITY	TOGGLE	F	Signal Polarity
LINEFREQ	IQUANT	60	Line Frequency (Hz)
INTPERIOD	QUANT	3.3334E-005	Integration Period (s)
SEQUENCER	TOGGLE	TRUE	Run as Sequence
PSTATMODEL	IQUANT	4	Pstat Model
PSTATSECTION	LABEL	REF600-24079	Pstat Section
PSTATSERIALNO	LABEL	24079	Pstat Serial Number
CTRLMODE	IQUANT	1	Control Mode
ELECTROMETER	IQUANT	0	RE=0 or CS=1
IESTAB	IQUANT	2	I/E Stability
CASPEED	IQUANT	6	Control Amp Speed
CONVENTION	IQUANT	1	Current Convention
ICHRANGE	IQUANT	2	Ich Range
ICHRANGEMODE	TOGGLE	F	Ich Auto Range
ICHOFFSETENABLE	TOGGLE	F	Ich Offset Enable
ICHOFFSET	QUANT	0	Ich Offset (V)
ICHFILTER	IQUANT	2	Ich Filter
VCHRANGE	IQUANT	2	Vch Range
VCHRANGEMODE	TOGGLE	F	Vch Auto Range
VCHOFFSETENABLE	TOGGLE	F	Vch Offset Enable
VCHOFFSET	QUANT	0	Vch Offset (V)
VCHFILTER	IQUANT	2	Vch Filter
ACHRANGE	IQUANT	2	Ach Range
ACHOFFSETENABLE	TOGGLE	F	Ach Offset Enable
ACHOFFSET	QUANT	0	Ach Offset (V)
ACHFILTER	IQUANT	1	Ach Filter
IERANGELOWERLIMIT	IQUANT	1	I/E Range Lower Limit
IERANGEMODE	TOGGLE	F	I/E AutoRange
IERANGE	IQUANT	6	I/E Range
POSFEEDENABLE	TOGGLE	F	Positive Feedback IR Comp
POSFEEDRESISTANCE	QUANT	0	Positive Feedback Resistance (ohm)
ACHSELECT	IQUANT	0	Ach Select
SENSECABLEID	IQUANT	13	Sense Cable ID
PWRCABLEID	IQUANT	13	Power Cable ID
DCCALDATE	LABEL	6/30/2020	DC Calibration Date
ACCALDATE	LABEL	6/30/2020	AC Calibration Date
THERMOSELECT	IQUANT	1	Thermo Select
FRAMEWORKVERSION	LABEL	7.8.2	Framework Version
INSTRUMENTVERSION	LABEL	4.40	Instrument Version
CURVE	TABLE	101
	Pt	T	Vfwd	Vrev	Vstep	Ifwd	Irev	Idif	Sig	Ach	IERange	Over	Temp
	#	s	V	V	V	A	A	A	V	V	#	bits	deg C
	0	0.1	-3.24998E-001	-3.74963E-001	-3.49980E-001	-6.78928E-009	-3.47642E-008	2.79749E-008	-3.75000E-001	4.52039E-004	6	..........a	-327.68
	1	0.2	-3.22947E-001	-3.72994E-001	-3.47971E-001	5.45894E-009	-3.02656E-008	3.57245E-008	-3.73000E-001	4.40873E-004	6	..........a	-327.68
	2	0.3	-3.21026E-001	-3.70883E-001	-3.45955E-001	7.64622E-009	-2.87851E-008	3.64313E-008	-3.71000E-001	4.40706E-004	6	..........a	-327.68
	3	0.4	-3.19015E-001	-3.69112E-001	-3.44064E-001	8.78470E-009	-2.77436E-008	3.65283E-008	-3.69000E-001	4.37706E-004	6	..........a	-327.68
	4	0.5	-3.17028E-001	-3.66943E-001	-3.41986E-001	9.70448E-009	-2.71102E-008	3.68147E-008	-3.67000E-001	4.41873E-004	6	..........a	-327.68
	5	0.6	-3.14912E-001	-3.65056E-001	-3.39984E-001	1.01965E-008	-2.65128E-008	3.67093E-008	-3.65000E-001	4.35706E-004	6	..........a	-327.68
	6	0.7	-3.13049E-001	-3.62899E-001	-3.37974E-001	1.09590E-008	-2.60937E-008	3.70527E-008	-3.63000E-001	4.37706E-004	6	..........a	-327.68
	7	0.8	-3.10980E-001	-3.61061E-001	-3.36020E-001	1.16224E-008	-2.55823E-008	3.72047E-008	-3.61000E-001	4.34539E-004	6	..........a	-327.68
	8	0.9	-3.09032E-001	-3.58959E-001	-3.33995E-001	1.17777E-008	-2.52760E-008	3.70537E-008	-3.59000E-001	4.40873E-004	6	..........a	-327.68
	9	1	-3.06931E-001	-3.57062E-001	-3.31997E-001	1.24812E-008	-2.50459E-008	3.75271E-008	-3.57000E-001	4.41373E-004	6	..........a	-327.68
	10	1.1	-3.05068E-001	-3.54922E-001	-3.29995E-001	1.29766E-008	-2.48542E-008	3.78308E-008	-3.55000E-001	4.31706E-004	6	..........a	-327.68
	11	1.2	-3.03004E-001	-3.53051E-001	-3.28028E-001	1.37380E-008	-2.47676E-008	3.85056E-008	-3.53000E-001	4.40206E-004	6	..........a	-327.68
	12	1.3	-3.01054E-001	-3.50947E-001	-3.26000E-001	1.43124E-008	-2.46159E-008	3.89283E-008	-3.51000E-001	4.38706E-004	6	..........a	-327.68
	13	1.4	-2.98934E-001	-3.49010E-001	-3.23972E-001	1.48685E-008	-2.42855E-008	3.91540E-008	-3.49000E-001	4.37706E-004	6	..........a	-327.68
	14	1.5	-2.97041E-001	-3.46942E-001	-3.21991E-001	1.56889E-008	-2.43555E-008	4.00444E-008	-3.47000E-001	4.39206E-004	6	..........a	-327.68
	15	1.6	-2.94971E-001	-3.45123E-001	-3.20047E-001	1.65297E-008	-2.44659E-008	4.09956E-008	-3.45000E-001	4.38373E-004	6	..........a	-327.68
	16	1.7	-2.92947E-001	-3.42962E-001	-3.17955E-001	1.70384E-008	-2.44669E-008	4.15053E-008	-3.43000E-001	4.45706E-004	6	..........a	-327.68
	17	1.8	-2.90886E-001	-3.41042E-001	-3.15964E-001	1.79922E-008	-2.47556E-008	4.27478E-008	-3.41000E-001	4.41539E-004	6	..........a	-327.68
	18	1.9	-2.89074E-001	-3.38902E-001	-3.13988E-001	1.90620E-008	-2.48569E-008	4.39189E-008	-3.39000E-001	4.44206E-004	6	..........a	-327.68
	19	2	-2.86958E-001	-3.37061E-001	-3.12009E-001	2.00395E-008	-2.51179E-008	4.51574E-008	-3.37000E-001	4.50206E-004	6	..........a	-327.68
	20	2.1	-2.85060E-001	-3.34946E-001	-3.10003E-001	2.11859E-008	-2.53156E-008	4.65016E-008	-3.35000E-001	4.38373E-004	6	..........a	-327.68
	21	2.2	-2.82903E-001	-3.33029E-001	-3.07966E-001	2.23511E-008	-2.56050E-008	4.79561E-008	-3.33000E-001	4.40873E-004	6	..........a	-327.68
	22	2.3	-2.81099E-001	-3.30916E-001	-3.06008E-001	2.33682E-008	-2.61611E-008	4.95293E-008	-3.31000E-001	4.43539E-004	6	..........a	-327.68
	23	2.4	-2.78962E-001	-3.29065E-001	-3.04013E-001	2.46937E-008	-2.68235E-008	5.15172E-008	-3.29000E-001	4.45873E-004	6	..........a	-327.68
	24	2.5	-2.77056E-001	-3.26949E-001	-3.02003E-001	2.61622E-008	-2.73672E-008	5.35295E-008	-3.27000E-001	4.45206E-004	6	..........a	-327.68
	25	2.6	-2.74929E-001	-3.25008E-001	-2.99968E-001	2.74401E-008	-2.80697E-008	5.55097E-008	-3.25000E-001	4.41539E-004	6	..........a	-327.68
	26	2.7	-2.73023E-001	-3.22934E-001	-2.97978E-001	2.90686E-008	-2.89001E-008	5.79687E-008	-3.23000E-001	4.47206E-004	6	..........a	-327.68
	27	2.8	-2.70947E-001	-3.20958E-001	-2.95953E-001	3.06101E-008	-2.96212E-008	6.02313E-008	-3.21000E-001	4.35206E-004	6	..........a	-327.68
	28	2.9	-2.69015E-001	-3.18957E-001	-2.93986E-001	3.19723E-008	-3.08297E-008	6.28020E-008	-3.19000E-001	4.35206E-004	6	..........a	-327.68
	29	3	-2.66874E-001	-3.17053E-001	-2.91963E-001	3.37265E-008	-3.18108E-008	6.55373E-008	-3.17000E-001	4.45539E-004	6	..........a	-327.68
	30	3.1	-2.65105E-001	-3.14913E-001	-2.90009E-001	3.53581E-008	-3.29419E-008	6.83000E-008	-3.15000E-001	4.41706E-004	6	..........a	-327.68
	31	3.2	-2.62939E-001	-3.13054E-001	-2.87996E-001	3.69249E-008	-3.41821E-008	7.11071E-008	-3.13000E-001	4.46039E-004	6	..........a	-327.68
	32	3.3	-2.61051E-001	-3.10956E-001	-2.86003E-001	3.84631E-008	-3.53196E-008	7.37827E-008	-3.11000E-001	4.50539E-004	6	..........a	-327.68
	33	3.4	-2.58898E-001	-3.09038E-001	-2.83968E-001	4.00350E-008	-3.66221E-008	7.66571E-008	-3.09000E-001	4.48206E-004	6	..........a	-327.68
	34	3.5	-2.57061E-001	-3.06925E-001	-2.81993E-001	4.14292E-008	-3.82336E-008	7.96628E-008	-3.07000E-001	4.45706E-004	6	..........a	-327.68
	35	3.6	-2.54978E-001	-3.05070E-001	-2.80024E-001	4.26890E-008	-3.96208E-008	8.23098E-008	-3.05000E-001	4.38539E-004	6	..........a	-327.68
	36	3.7	-2.53054E-001	-3.02966E-001	-2.78010E-001	4.38462E-008	-4.09756E-008	8.48218E-008	-3.03000E-001	4.39539E-004	6	..........a	-327.68
	37	3.8	-2.50931E-001	-3.01036E-001	-2.75984E-001	4.46683E-008	-4.26792E-008	8.73474E-008	-3.01000E-001	4.43373E-004	6	..........a	-327.68
	38	3.9	-2.49038E-001	-2.98947E-001	-2.73992E-001	4.55810E-008	-4.41167E-008	8.96977E-008	-2.99000E-001	4.32706E-004	6	..........a	-327.68
	39	4	-2.46935E-001	-2.97005E-001	-2.71970E-001	4.62288E-008	-4.52878E-008	9.15166E-008	-2.97000E-001	4.39206E-004	6	..........a	-327.68
	40	4.1	-2.44986E-001	-2.94938E-001	-2.69962E-001	4.68309E-008	-4.67247E-008	9.35556E-008	-2.95000E-001	4.33373E-004	6	..........a	-327.68
	41	4.2	-2.42883E-001	-2.93044E-001	-2.67963E-001	4.70049E-008	-4.79762E-008	9.49811E-008	-2.93000E-001	4.37706E-004	6	..........a	-327.68
	42	4.3	-2.41109E-001	-2.90908E-001	-2.66008E-001	4.68425E-008	-4.91080E-008	9.59505E-008	-2.91000E-001	4.32706E-004	6	..........a	-327.68
	43	4.4	-2.38956E-001	-2.89043E-001	-2.63999E-001	4.72279E-008	-5.01601E-008	9.73881E-008	-2.89000E-001	4.40539E-004	6	..........a	-327.68
	44	4.5	-2.37047E-001	-2.86918E-001	-2.61983E-001	4.66975E-008	-5.09766E-008	9.76741E-008	-2.87000E-001	4.43706E-004	6	..........a	-327.68
	45	4.6	-2.34890E-001	-2.85046E-001	-2.59968E-001	4.65475E-008	-5.17667E-008	9.83142E-008	-2.85000E-001	4.40706E-004	6	..........a	-327.68
	46	4.7	-2.33056E-001	-2.82915E-001	-2.57985E-001	4.59478E-008	-5.21497E-008	9.80975E-008	-2.83000E-001	4.39039E-004	6	..........a	-327.68
	47	4.8	-2.30935E-001	-2.81091E-001	-2.56013E-001	4.52657E-008	-5.25851E-008	9.78508E-008	-2.81000E-001	4.44706E-004	6	..........a	-327.68
	48	4.9	-2.29032E-001	-2.78938E-001	-2.53985E-001	4.45973E-008	-5.26791E-008	9.72764E-008	-2.79000E-001	4.46039E-004	6	..........a	-327.68
	49	5	-2.26918E-001	-2.77029E-001	-2.51974E-001	4.38662E-008	-5.25991E-008	9.64653E-008	-2.77000E-001	4.44706E-004	6	..........a	-327.68
	50	5.1	-2.25030E-001	-2.74943E-001	-2.49986E-001	4.28127E-008	-5.24838E-008	9.52965E-008	-2.75000E-001	4.47373E-004	6	..........a	-327.68
	51	5.2	-2.22930E-001	-2.73004E-001	-2.47967E-001	4.18929E-008	-5.19494E-008	9.38423E-008	-2.73000E-001	4.38539E-004	6	..........a	-327.68
	52	5.3	-2.21004E-001	-2.70940E-001	-2.45972E-001	4.09125E-008	-5.13840E-008	9.22964E-008	-2.71000E-001	4.35206E-004	6	..........a	-327.68
	53	5.4	-2.18934E-001	-2.68993E-001	-2.43964E-001	3.96173E-008	-5.07165E-008	9.03338E-008	-2.69000E-001	4.38706E-004	6	..........a	-327.68
	54	5.5	-2.17119E-001	-2.66887E-001	-2.42003E-001	3.86322E-008	-4.97364E-008	8.83686E-008	-2.67000E-001	4.28039E-004	6	..........a	-327.68
	55	5.6	-2.14930E-001	-2.65099E-001	-2.40015E-001	3.72847E-008	-4.87130E-008	8.59976E-008	-2.65000E-001	4.36873E-004	6	..........a	-327.68
	56	5.7	-2.13025E-001	-2.62922E-001	-2.37973E-001	3.62895E-008	-4.74211E-008	8.37107E-008	-2.63000E-001	4.41873E-004	6	..........a	-327.68
	57	5.8	-2.10907E-001	-2.61051E-001	-2.35979E-001	3.51764E-008	-4.61093E-008	8.12857E-008	-2.61000E-001	4.38873E-004	6	..........a	-327.68
	58	5.9	-2.09049E-001	-2.58912E-001	-2.33981E-001	3.42189E-008	-4.46181E-008	7.88370E-008	-2.59000E-001	4.38206E-004	6	..........a	-327.68
	59	6	-2.06939E-001	-2.57029E-001	-2.31984E-001	3.30535E-008	-4.30106E-008	7.60640E-008	-2.57000E-001	4.41373E-004	6	..........a	-327.68
	60	6.1	-2.05033E-001	-2.54935E-001	-2.29984E-001	3.21607E-008	-4.13310E-008	7.34917E-008	-2.55000E-001	4.46373E-004	6	..........a	-327.68
	61	6.2	-2.02912E-001	-2.53025E-001	-2.27969E-001	3.10069E-008	-3.97711E-008	7.07780E-008	-2.53000E-001	4.37873E-004	6	..........a	-327.68
	62	6.3	-2.01059E-001	-2.50923E-001	-2.25991E-001	3.01321E-008	-3.79836E-008	6.81157E-008	-2.51000E-001	4.49539E-004	6	..........a	-327.68
	63	6.4	-1.98965E-001	-2.49011E-001	-2.23988E-001	2.90286E-008	-3.61527E-008	6.51813E-008	-2.49000E-001	4.42039E-004	6	..........a	-327.68
	64	6.5	-1.97016E-001	-2.46940E-001	-2.21978E-001	2.84012E-008	-3.45982E-008	6.29993E-008	-2.47000E-001	4.40373E-004	6	..........a	-327.68
	65	6.6	-1.94940E-001	-2.44963E-001	-2.19952E-001	2.74647E-008	-3.29949E-008	6.04597E-008	-2.45000E-001	4.45206E-004	6	..........a	-327.68
	66	6.7	-1.92998E-001	-2.42869E-001	-2.17934E-001	2.66370E-008	-3.13314E-008	5.79684E-008	-2.43000E-001	4.38039E-004	6	..........a	-327.68
	67	6.8	-1.90965E-001	-2.41107E-001	-2.16036E-001	2.58792E-008	-2.99722E-008	5.58514E-008	-2.41000E-001	4.45706E-004	6	..........a	-327.68
	68	6.9	-1.89036E-001	-2.38944E-001	-2.13990E-001	2.51304E-008	-2.83617E-008	5.34921E-008	-2.39000E-001	4.39539E-004	6	..........a	-327.68
	69	7	-1.86893E-001	-2.36973E-001	-2.11933E-001	2.45940E-008	-2.71652E-008	5.17593E-008	-2.37000E-001	4.35039E-004	6	..........a	-327.68
	70	7.1	-1.85053E-001	-2.34889E-001	-2.09971E-001	2.38206E-008	-2.57627E-008	4.95833E-008	-2.35000E-001	4.42039E-004	6	..........a	-327.68
	71	7.2	-1.82934E-001	-2.33039E-001	-2.07987E-001	2.33155E-008	-2.45465E-008	4.78621E-008	-2.33000E-001	4.42039E-004	6	..........a	-327.68
	72	7.3	-1.81045E-001	-2.30939E-001	-2.05992E-001	2.29325E-008	-2.33604E-008	4.62929E-008	-2.31000E-001	4.49373E-004	6	..........a	-327.68
	73	7.4	-1.78905E-001	-2.29057E-001	-2.03981E-001	2.26698E-008	-2.24033E-008	4.50731E-008	-2.29000E-001	4.51039E-004	6	..........a	-327.68
	74	7.5	-1.77062E-001	-2.26920E-001	-2.01991E-001	2.21531E-008	-2.14115E-008	4.35645E-008	-2.27000E-001	4.47706E-004	6	..........a	-327.68
	75	7.6	-1.74970E-001	-2.25035E-001	-2.00003E-001	2.17530E-008	-2.05144E-008	4.22674E-008	-2.25000E-001	4.48539E-004	6	..........a	-327.68
	76	7.7	-1.73041E-001	-2.22924E-001	-1.97982E-001	2.15120E-008	-1.94172E-008	4.09292E-008	-2.23000E-001	4.44206E-004	6	..........a	-327.68
	77	7.8	-1.70926E-001	-2.20985E-001	-1.95956E-001	2.14133E-008	-1.89125E-008	4.03258E-008	-2.21000E-001	4.42039E-004	6	..........a	-327.68
	78	7.9	-1.69024E-001	-2.18924E-001	-1.93974E-001	2.09106E-008	-1.79994E-008	3.89100E-008	-2.19000E-001	4.36039E-004	6	..........a	-327.68
	79	8	-1.66940E-001	-2.17103E-001	-1.92021E-001	2.07972E-008	-1.73076E-008	3.81049E-008	-2.17000E-001	4.50706E-004	6	..........a	-327.68
	80	8.1	-1.64944E-001	-2.14945E-001	-1.89944E-001	2.05799E-008	-1.67085E-008	3.72884E-008	-2.15000E-001	4.47373E-004	6	..........a	-327.68
	81	8.2	-1.62883E-001	-2.12980E-001	-1.87932E-001	2.03298E-008	-1.62675E-008	3.65973E-008	-2.13000E-001	4.42873E-004	6	..........a	-327.68
	82	8.3	-1.61028E-001	-2.10889E-001	-1.85958E-001	2.00421E-008	-1.57334E-008	3.57755E-008	-2.11000E-001	4.45873E-004	6	..........a	-327.68
	83	8.4	-1.58931E-001	-2.09025E-001	-1.83978E-001	1.99591E-008	-1.52067E-008	3.51658E-008	-2.09000E-001	4.46206E-004	6	..........a	-327.68
	84	8.5	-1.57030E-001	-2.06929E-001	-1.81979E-001	1.98461E-008	-1.50290E-008	3.48751E-008	-2.07000E-001	4.50706E-004	6	..........a	-327.68
	85	8.6	-1.54900E-001	-2.05027E-001	-1.79963E-001	1.98234E-008	-1.44566E-008	3.42800E-008	-2.05000E-001	4.48373E-004	6	..........a	-327.68
	86	8.7	-1.53092E-001	-2.02914E-001	-1.78003E-001	1.97984E-008	-1.41512E-008	3.39497E-008	-2.03000E-001	4.52039E-004	6	..........a	-327.68
	87	8.8	-1.50959E-001	-2.01052E-001	-1.76005E-001	1.96124E-008	-1.36668E-008	3.32792E-008	-2.01000E-001	4.47206E-004	6	..........a	-327.68
	88	8.9	-1.49045E-001	-1.98947E-001	-1.73996E-001	1.95224E-008	-1.34231E-008	3.29455E-008	-1.99000E-001	4.40039E-004	6	..........a	-327.68
	89	9	-1.46935E-001	-1.96998E-001	-1.71967E-001	1.96908E-008	-1.32014E-008	3.28922E-008	-1.97000E-001	4.49873E-004	6	..........a	-327.68
	90	9.1	-1.45006E-001	-1.94927E-001	-1.69967E-001	1.94544E-008	-1.30454E-008	3.24998E-008	-1.95000E-001	4.43873E-004	6	..........a	-327.68
	91	9.2	-1.42942E-001	-1.92971E-001	-1.67956E-001	1.96247E-008	-1.28664E-008	3.24911E-008	-1.93000E-001	4.42373E-004	6	..........a	-327.68
	92	9.3	-1.41002E-001	-1.90973E-001	-1.65988E-001	1.94774E-008	-1.26737E-008	3.21511E-008	-1.91000E-001	4.46706E-004	6	..........a	-327.68
	93	9.4	-1.38861E-001	-1.89042E-001	-1.63951E-001	1.93904E-008	-1.24160E-008	3.18064E-008	-1.89000E-001	4.42039E-004	6	..........a	-327.68
	94	9.5	-1.37097E-001	-1.86890E-001	-1.61994E-001	1.93904E-008	-1.22636E-008	3.16540E-008	-1.87000E-001	4.48373E-004	6	..........a	-327.68
	95	9.6	-1.34950E-001	-1.85037E-001	-1.59994E-001	1.94694E-008	-1.18856E-008	3.13550E-008	-1.85000E-001	4.46039E-004	6	..........a	-327.68
	96	9.7	-1.33043E-001	-1.82920E-001	-1.57981E-001	1.93564E-008	-1.19366E-008	3.12930E-008	-1.83000E-001	4.46039E-004	6	..........a	-327.68
	97	9.8	-1.30902E-001	-1.80984E-001	-1.55943E-001	1.95311E-008	-1.18483E-008	3.13793E-008	-1.81000E-001	4.40206E-004	6	..........a	-327.68
	98	9.9	-1.29048E-001	-1.78905E-001	-1.53976E-001	1.94757E-008	-1.17459E-008	3.12216E-008	-1.79000E-001	4.46039E-004	6	..........a	-327.68
	99	10	-1.26973E-001	-1.77035E-001	-1.52004E-001	1.95744E-008	-1.15529E-008	3.11273E-008	-1.77000E-001	4.45706E-004	6	..........a	-327.68
	100	10.1	-1.25058E-001	-1.74934E-001	-1.49996E-001	1.93227E-008	-1.15406E-008	3.08633E-008	-1.75000E-001	4.35873E-004	6	..........a	-327.68
