EXPLAIN
TAG	SQUARE_WAVE
TITLE	LABEL	Square Wave Voltammetry	Test Identifier
DATE	LABEL	8/31/2020	Date
TIME	LABEL	12:38:42	Time
NOTES	NOTES	1	Notes...
	
PSTAT	PSTAT	REF600-24079	Potentiostat
VINIT	QUANT	-3.50000E-001	Initial E (V)
VFINAL	QUANT	-1.50000E-001	Final E (V)
STEPSIZE	QUANT	2.00000E+000	Step Size (mV)
TIMERRES	QUANT	3.33340E-005	&Timer Resolution
FREQUENCY	QUANT	2.00000E+002	Frequency (Hz)
PULSESIZE	QUANT	2.50000E+001	Pulse Size E (mV)
PULSEON	QUANT	5.00000E-003	Pulse &Time (s)
NOISEREJECT	TOGGLE	F	Noise Rejection
AREA	QUANT	2.00000E-002	Sample Area (cm^2)
IMODE	SELECTOR	1	I/E Range Mode
IRANGE	QUANT	1.00000E-002	Max Current (mA)
EQDELAY	IQUANT	10	Equil. Time (s)
IRCOMP	SELECTOR	0	IRComp
PFCOR	QUANT	5.00000E+001	PF Corr. (ohm)
CYCLES	IQUANT	101	C&ycles (#)
ELECTRODETYPE	SELECTOR	0	Electrode Type
STRIPPING	TOGGLE	F	Used for Stripping
POLARITY	TOGGLE	F	Signal Polarity
LINEFREQ	IQUANT	60	Line Frequency (Hz)
INTPERIOD	QUANT	3.3334E-005	Integration Period (s)
SEQUENCER	TOGGLE	TRUE	Run as Sequence
PSTATMODEL	IQUANT	4	Pstat Model
PSTATSECTION	LABEL	REF600-24079	Pstat Section
PSTATSERIALNO	LABEL	24079	Pstat Serial Number
CTRLMODE	IQUANT	1	Control Mode
ELECTROMETER	IQUANT	0	RE=0 or CS=1
IESTAB	IQUANT	2	I/E Stability
CASPEED	IQUANT	6	Control Amp Speed
CONVENTION	IQUANT	1	Current Convention
ICHRANGE	IQUANT	2	Ich Range
ICHRANGEMODE	TOGGLE	F	Ich Auto Range
ICHOFFSETENABLE	TOGGLE	F	Ich Offset Enable
ICHOFFSET	QUANT	0	Ich Offset (V)
ICHFILTER	IQUANT	2	Ich Filter
VCHRANGE	IQUANT	2	Vch Range
VCHRANGEMODE	TOGGLE	F	Vch Auto Range
VCHOFFSETENABLE	TOGGLE	F	Vch Offset Enable
VCHOFFSET	QUANT	0	Vch Offset (V)
VCHFILTER	IQUANT	1	Vch Filter
ACHRANGE	IQUANT	2	Ach Range
ACHOFFSETENABLE	TOGGLE	F	Ach Offset Enable
ACHOFFSET	QUANT	0	Ach Offset (V)
ACHFILTER	IQUANT	1	Ach Filter
IERANGELOWERLIMIT	IQUANT	1	I/E Range Lower Limit
IERANGEMODE	TOGGLE	F	I/E AutoRange
IERANGE	IQUANT	7	I/E Range
POSFEEDENABLE	TOGGLE	F	Positive Feedback IR Comp
POSFEEDRESISTANCE	QUANT	0	Positive Feedback Resistance (ohm)
ACHSELECT	IQUANT	0	Ach Select
SENSECABLEID	IQUANT	13	Sense Cable ID
PWRCABLEID	IQUANT	13	Power Cable ID
DCCALDATE	LABEL	6/30/2020	DC Calibration Date
ACCALDATE	LABEL	6/30/2020	AC Calibration Date
THERMOSELECT	IQUANT	1	Thermo Select
FRAMEWORKVERSION	LABEL	7.8.2	Framework Version
INSTRUMENTVERSION	LABEL	4.40	Instrument Version
CURVE	TABLE	101
	Pt	T	Vfwd	Vrev	Vstep	Ifwd	Irev	Idif	Sig	Ach	IERange	Over	Temp
	#	s	V	V	V	A	A	A	V	V	#	bits	deg C
	0	0.005	-3.24861E-001	-3.80048E-001	-3.52454E-001	1.96232E-009	-3.16548E-007	3.18510E-007	-3.75000E-001	3.42706E-004	7	..........a	-327.68
	1	0.01	-3.17474E-001	-3.78298E-001	-3.47886E-001	-9.08503E-008	-2.91086E-008	-6.17418E-008	-3.73000E-001	3.16039E-004	7	..........a	-327.68
	2	0.015	-3.15541E-001	-3.76214E-001	-3.45878E-001	-6.73138E-008	-5.03864E-009	-6.22751E-008	-3.71000E-001	2.96039E-004	7	..........a	-327.68
	3	0.02	-3.13507E-001	-3.74234E-001	-3.43871E-001	-5.03115E-008	4.16262E-009	-5.44741E-008	-3.69000E-001	2.92706E-004	7	..........a	-327.68
	4	0.025	-3.11538E-001	-3.72201E-001	-3.41869E-001	-3.66429E-008	1.27638E-008	-4.94067E-008	-3.67000E-001	3.22706E-004	7	..........a	-327.68
	5	0.03	-3.09498E-001	-3.70234E-001	-3.39866E-001	-2.17076E-008	1.71644E-008	-3.88720E-008	-3.65000E-001	2.92706E-004	7	..........a	-327.68
	6	0.035	-3.07518E-001	-3.68248E-001	-3.37883E-001	-1.18396E-008	1.58309E-008	-2.76704E-008	-3.63000E-001	2.99373E-004	7	..........a	-327.68
	7	0.04	-3.05514E-001	-3.66224E-001	-3.35869E-001	1.62071E-010	1.78311E-008	-1.76691E-008	-3.61000E-001	3.62706E-004	7	..........a	-327.68
	8	0.045	-3.03524E-001	-3.64244E-001	-3.33884E-001	1.42973E-008	1.76978E-008	-3.40046E-009	-3.59000E-001	3.46039E-004	7	..........a	-327.68
	9	0.05	-3.01554E-001	-3.62204E-001	-3.31879E-001	2.63656E-008	1.61643E-008	1.02014E-008	-3.57000E-001	3.12706E-004	7	..........a	-327.68
	10	0.055	-2.99561E-001	-3.60224E-001	-3.29893E-001	3.55669E-008	9.96341E-009	2.56035E-008	-3.55000E-001	3.06039E-004	7	..........a	-327.68
	11	0.06	-2.97551E-001	-3.58234E-001	-3.27893E-001	5.08356E-008	1.30972E-008	3.77385E-008	-3.53000E-001	2.59373E-004	7	..........a	-327.68
	12	0.065	-2.95511E-001	-3.56224E-001	-3.25868E-001	6.54376E-008	4.16262E-009	6.12750E-008	-3.51000E-001	2.99373E-004	7	..........a	-327.68
	13	0.07	-2.93548E-001	-3.54278E-001	-3.23913E-001	7.64391E-008	-9.04741E-010	7.73439E-008	-3.49000E-001	3.06039E-004	7	..........a	-327.68
	14	0.075	-2.91521E-001	-3.52268E-001	-3.21894E-001	9.53084E-008	-3.97183E-009	9.92802E-008	-3.47000E-001	3.26039E-004	7	..........a	-327.68
	15	0.08	-2.89498E-001	-3.50258E-001	-3.19878E-001	1.08777E-007	-7.10559E-009	1.15882E-007	-3.45000E-001	3.09373E-004	7	..........a	-327.68
	16	0.085	-2.87518E-001	-3.48274E-001	-3.17896E-001	1.24979E-007	-1.56401E-008	1.40619E-007	-3.43000E-001	3.42706E-004	7	..........a	-327.68
	17	0.09	-2.85564E-001	-3.46234E-001	-3.15899E-001	1.44182E-007	-2.52414E-008	1.69423E-007	-3.41000E-001	3.19373E-004	7	..........a	-327.68
	18	0.095	-2.83471E-001	-3.44248E-001	-3.13859E-001	1.63184E-007	-3.10422E-008	1.94226E-007	-3.39000E-001	3.26039E-004	7	..........a	-327.68
	19	0.1	-2.81564E-001	-3.42301E-001	-3.11933E-001	1.80920E-007	-4.24437E-008	2.23364E-007	-3.37000E-001	3.22706E-004	7	..........a	-327.68
	20	0.105	-2.79508E-001	-3.40304E-001	-3.09906E-001	2.04990E-007	-5.05782E-008	2.55568E-007	-3.35000E-001	2.59373E-004	7	..........a	-327.68
	21	0.11	-2.77658E-001	-3.38261E-001	-3.07959E-001	2.26593E-007	-6.50468E-008	2.91640E-007	-3.33000E-001	2.89373E-004	7	..........a	-327.68
	22	0.115	-2.75508E-001	-3.36264E-001	-3.05886E-001	2.45529E-007	-7.19811E-008	3.17510E-007	-3.31000E-001	3.76039E-004	7	..........a	-327.68
	23	0.12	-2.73528E-001	-3.34294E-001	-3.03911E-001	2.70332E-007	-8.51162E-008	3.55448E-007	-3.29000E-001	3.22706E-004	7	..........a	-327.68
	24	0.125	-2.71511E-001	-3.32281E-001	-3.01896E-001	2.93269E-007	-9.80513E-008	3.91320E-007	-3.27000E-001	3.06039E-004	7	..........a	-327.68
	25	0.13	-2.69528E-001	-3.30304E-001	-2.99916E-001	3.21873E-007	-1.10053E-007	4.31926E-007	-3.25000E-001	3.06039E-004	7	..........a	-327.68
	26	0.135	-2.67498E-001	-3.28317E-001	-2.97908E-001	3.44742E-007	-1.27655E-007	4.72398E-007	-3.23000E-001	3.09373E-004	7	..........a	-327.68
	27	0.14	-2.65491E-001	-3.26314E-001	-2.95903E-001	3.79480E-007	-1.37923E-007	5.17404E-007	-3.21000E-001	3.16039E-004	7	..........a	-327.68
	28	0.145	-2.63451E-001	-3.24298E-001	-2.93874E-001	4.00883E-007	-1.55659E-007	5.56543E-007	-3.19000E-001	3.19373E-004	7	..........a	-327.68
	29	0.15	-2.61498E-001	-3.22344E-001	-2.91921E-001	4.29887E-007	-1.68728E-007	5.98615E-007	-3.17000E-001	3.59373E-004	7	..........a	-327.68
	30	0.155	-2.59488E-001	-3.20378E-001	-2.89933E-001	4.59758E-007	-1.87397E-007	6.47155E-007	-3.15000E-001	2.99373E-004	7	..........a	-327.68
	31	0.16	-2.57474E-001	-3.18314E-001	-2.87894E-001	4.88895E-007	-1.99465E-007	6.88360E-007	-3.13000E-001	3.09373E-004	7	..........a	-327.68
	32	0.165	-2.55507E-001	-3.16324E-001	-2.85916E-001	5.18366E-007	-2.19868E-007	7.38234E-007	-3.11000E-001	3.36039E-004	7	..........a	-327.68
	33	0.17	-2.53461E-001	-3.14328E-001	-2.83894E-001	5.38769E-007	-2.32403E-007	7.71172E-007	-3.09000E-001	3.12706E-004	7	..........a	-327.68
	34	0.175	-2.51498E-001	-3.12304E-001	-2.81901E-001	5.72240E-007	-2.51472E-007	8.23712E-007	-3.07000E-001	3.09373E-004	7	..........a	-327.68
	35	0.18	-2.49508E-001	-3.10344E-001	-2.79926E-001	5.93576E-007	-2.65674E-007	8.59250E-007	-3.05000E-001	3.12706E-004	7	..........a	-327.68
	36	0.185	-2.47481E-001	-3.08374E-001	-2.77928E-001	6.21847E-007	-2.84877E-007	9.06724E-007	-3.03000E-001	3.39373E-004	7	..........a	-327.68
	37	0.19	-2.45464E-001	-3.06338E-001	-2.75901E-001	6.40383E-007	-2.95745E-007	9.36128E-007	-3.01000E-001	3.32706E-004	7	..........a	-327.68
	38	0.195	-2.43464E-001	-3.04351E-001	-2.73908E-001	6.66853E-007	-3.09147E-007	9.76000E-007	-2.99000E-001	3.39373E-004	7	..........a	-327.68
	39	0.2	-2.41441E-001	-3.02334E-001	-2.71888E-001	6.81588E-007	-3.24682E-007	1.00627E-006	-2.97000E-001	3.09373E-004	7	..........a	-327.68
	40	0.205	-2.39481E-001	-3.00354E-001	-2.69918E-001	7.03191E-007	-3.33083E-007	1.03627E-006	-2.95000E-001	3.39373E-004	7	..........a	-327.68
	41	0.21	-2.37431E-001	-2.98348E-001	-2.67889E-001	7.17460E-007	-3.47019E-007	1.06448E-006	-2.93000E-001	2.86039E-004	7	..........a	-327.68
	42	0.215	-2.35451E-001	-2.96354E-001	-2.65903E-001	7.30795E-007	-3.49952E-007	1.08075E-006	-2.91000E-001	2.99373E-004	7	..........a	-327.68
	43	0.22	-2.33461E-001	-2.94344E-001	-2.63903E-001	7.38196E-007	-3.63888E-007	1.10208E-006	-2.89000E-001	3.29373E-004	7	..........a	-327.68
	44	0.225	-2.31434E-001	-2.92318E-001	-2.61876E-001	7.43863E-007	-3.64154E-007	1.10802E-006	-2.87000E-001	3.06039E-004	7	..........a	-327.68
	45	0.23	-2.29451E-001	-2.90328E-001	-2.59889E-001	7.47264E-007	-3.69822E-007	1.11709E-006	-2.85000E-001	3.22706E-004	7	..........a	-327.68
	46	0.235	-2.27424E-001	-2.88328E-001	-2.57876E-001	7.40863E-007	-3.72822E-007	1.11369E-006	-2.83000E-001	3.66039E-004	7	..........a	-327.68
	47	0.24	-2.25464E-001	-2.86331E-001	-2.55898E-001	7.42130E-007	-3.72355E-007	1.11449E-006	-2.81000E-001	2.99373E-004	7	..........a	-327.68
	48	0.245	-2.23428E-001	-2.84318E-001	-2.53873E-001	7.33395E-007	-3.72089E-007	1.10548E-006	-2.79000E-001	3.09373E-004	7	..........a	-327.68
	49	0.25	-2.21444E-001	-2.82264E-001	-2.51854E-001	7.25528E-007	-3.67688E-007	1.09322E-006	-2.77000E-001	3.56039E-004	7	..........a	-327.68
	50	0.255	-2.19438E-001	-2.80298E-001	-2.49868E-001	7.09259E-007	-3.63154E-007	1.07241E-006	-2.75000E-001	3.16039E-004	7	..........a	-327.68
	51	0.26	-2.17368E-001	-2.78278E-001	-2.47823E-001	6.96924E-007	-3.56553E-007	1.05348E-006	-2.73000E-001	3.19373E-004	7	..........a	-327.68
	52	0.265	-2.15418E-001	-2.76298E-001	-2.45858E-001	6.75988E-007	-3.48219E-007	1.02421E-006	-2.71000E-001	3.19373E-004	7	..........a	-327.68
	53	0.27	-2.13454E-001	-2.74258E-001	-2.43856E-001	6.56852E-007	-3.40218E-007	9.97069E-007	-2.69000E-001	3.02706E-004	7	..........a	-327.68
	54	0.275	-2.11451E-001	-2.72244E-001	-2.41848E-001	6.38382E-007	-3.30016E-007	9.68399E-007	-2.67000E-001	3.56039E-004	7	..........a	-327.68
	55	0.28	-2.09471E-001	-2.70261E-001	-2.39866E-001	6.13312E-007	-3.13547E-007	9.26860E-007	-2.65000E-001	3.56039E-004	7	..........a	-327.68
	56	0.285	-2.07438E-001	-2.68221E-001	-2.37829E-001	5.85909E-007	-3.03546E-007	8.89455E-007	-2.63000E-001	3.39373E-004	7	..........a	-327.68
	57	0.29	-2.05488E-001	-2.66184E-001	-2.35836E-001	5.59438E-007	-2.86477E-007	8.45915E-007	-2.61000E-001	3.19373E-004	7	..........a	-327.68
	58	0.295	-2.03458E-001	-2.64204E-001	-2.33831E-001	5.32301E-007	-2.74942E-007	8.07243E-007	-2.59000E-001	3.02706E-004	7	..........a	-327.68
	59	0.3	-2.01478E-001	-2.62098E-001	-2.31788E-001	5.04097E-007	-2.57473E-007	7.61570E-007	-2.57000E-001	3.06039E-004	7	..........a	-327.68
	60	0.305	-1.99514E-001	-2.60114E-001	-2.29814E-001	4.77294E-007	-2.40471E-007	7.17764E-007	-2.55000E-001	3.22706E-004	7	..........a	-327.68
	61	0.31	-1.97501E-001	-2.58131E-001	-2.27816E-001	4.47356E-007	-2.24602E-007	6.71958E-007	-2.53000E-001	3.16039E-004	7	..........a	-327.68
	62	0.315	-1.95524E-001	-2.56154E-001	-2.25839E-001	4.20419E-007	-2.07533E-007	6.27952E-007	-2.51000E-001	3.02706E-004	7	..........a	-327.68
	63	0.32	-1.93508E-001	-2.54121E-001	-2.23814E-001	3.91949E-007	-1.92798E-007	5.84746E-007	-2.49000E-001	3.32706E-004	7	..........a	-327.68
	64	0.325	-1.91511E-001	-2.52078E-001	-2.21794E-001	3.65679E-007	-1.72795E-007	5.38473E-007	-2.47000E-001	3.22706E-004	7	..........a	-327.68
	65	0.33	-1.89538E-001	-2.50101E-001	-2.19819E-001	3.40408E-007	-1.54392E-007	4.94801E-007	-2.45000E-001	3.02706E-004	7	..........a	-327.68
	66	0.335	-1.87521E-001	-2.48064E-001	-2.17793E-001	3.13271E-007	-1.38523E-007	4.51795E-007	-2.43000E-001	3.46039E-004	7	..........a	-327.68
	67	0.34	-1.85581E-001	-2.46051E-001	-2.15816E-001	2.86868E-007	-1.20654E-007	4.07522E-007	-2.41000E-001	3.36039E-004	7	..........a	-327.68
	68	0.345	-1.83554E-001	-2.44104E-001	-2.13829E-001	2.63865E-007	-1.03385E-007	3.67250E-007	-2.39000E-001	3.26039E-004	7	..........a	-327.68
	69	0.35	-1.81541E-001	-2.42034E-001	-2.11788E-001	2.37928E-007	-8.95168E-008	3.27445E-007	-2.37000E-001	3.06039E-004	7	..........a	-327.68
	70	0.355	-1.79601E-001	-2.40004E-001	-2.09803E-001	2.18258E-007	-6.73805E-008	2.85639E-007	-2.35000E-001	3.16039E-004	7	..........a	-327.68
	71	0.36	-1.77588E-001	-2.38051E-001	-2.07819E-001	1.95655E-007	-5.77792E-008	2.53435E-007	-2.33000E-001	2.82706E-004	7	..........a	-327.68
	72	0.365	-1.75618E-001	-2.36041E-001	-2.05829E-001	1.74119E-007	-4.12436E-008	2.15363E-007	-2.31000E-001	3.19373E-004	7	..........a	-327.68
	73	0.37	-1.73584E-001	-2.34014E-001	-2.03799E-001	1.57450E-007	-2.61749E-008	1.83625E-007	-2.29000E-001	3.32706E-004	7	..........a	-327.68
	74	0.375	-1.71588E-001	-2.32001E-001	-2.01794E-001	1.39314E-007	-1.21729E-008	1.51487E-007	-2.27000E-001	2.99373E-004	7	..........a	-327.68
	75	0.38	-1.69638E-001	-2.29974E-001	-1.99806E-001	1.25246E-007	2.82910E-009	1.22417E-007	-2.25000E-001	3.42706E-004	7	..........a	-327.68
	76	0.385	-1.67631E-001	-2.28034E-001	-1.97833E-001	1.02309E-007	1.32972E-008	8.90121E-008	-2.23000E-001	3.32706E-004	7	..........a	-327.68
	77	0.39	-1.65598E-001	-2.25998E-001	-1.95798E-001	9.27080E-008	2.82326E-008	6.44755E-008	-2.21000E-001	2.92706E-004	7	..........a	-327.68
	78	0.395	-1.63664E-001	-2.23994E-001	-1.93829E-001	7.46389E-008	3.98341E-008	3.48047E-008	-2.19000E-001	3.19373E-004	7	..........a	-327.68
	79	0.4	-1.61674E-001	-2.21978E-001	-1.91826E-001	6.25706E-008	5.29693E-008	9.60131E-009	-2.17000E-001	2.96039E-004	7	..........a	-327.68
	80	0.405	-1.59651E-001	-2.19978E-001	-1.89814E-001	5.17691E-008	5.97035E-008	-7.93442E-009	-2.15000E-001	3.76039E-004	7	..........a	-327.68
	81	0.41	-1.57674E-001	-2.18024E-001	-1.87849E-001	3.82339E-008	7.15718E-008	-3.33379E-008	-2.13000E-001	3.62706E-004	7	..........a	-327.68
	82	0.415	-1.55658E-001	-2.15961E-001	-1.85809E-001	3.26998E-008	7.70392E-008	-4.43394E-008	-2.11000E-001	3.72706E-004	7	..........a	-327.68
	83	0.42	-1.53691E-001	-2.13964E-001	-1.83828E-001	1.86313E-008	9.29747E-008	-7.43435E-008	-2.09000E-001	3.52706E-004	7	..........a	-327.68
	84	0.425	-1.51651E-001	-2.12021E-001	-1.81836E-001	1.13636E-008	9.66419E-008	-8.52783E-008	-2.07000E-001	3.26039E-004	7	..........a	-327.68
	85	0.43	-1.49698E-001	-2.09984E-001	-1.79841E-001	1.82897E-009	1.10444E-007	-1.08615E-007	-2.05000E-001	3.22706E-004	7	..........a	-327.68
	86	0.435	-1.47664E-001	-2.07951E-001	-1.77808E-001	-5.83875E-009	1.13711E-007	-1.19550E-007	-2.03000E-001	2.82706E-004	7	..........a	-327.68
	87	0.44	-1.45728E-001	-2.05968E-001	-1.75848E-001	-1.24396E-008	1.23246E-007	-1.35685E-007	-2.01000E-001	3.36039E-004	7	..........a	-327.68
	88	0.445	-1.43721E-001	-2.04008E-001	-1.73864E-001	-1.72403E-008	1.28513E-007	-1.45753E-007	-1.99000E-001	3.62706E-004	7	..........a	-327.68
	89	0.45	-1.41751E-001	-2.01971E-001	-1.71861E-001	-2.84418E-008	1.30847E-007	-1.59288E-007	-1.97000E-001	3.16039E-004	7	..........a	-327.68
	90	0.455	-1.39734E-001	-2.00008E-001	-1.69871E-001	-2.87085E-008	1.43982E-007	-1.72690E-007	-1.95000E-001	3.62706E-004	7	..........a	-327.68
	91	0.46	-1.37668E-001	-1.97984E-001	-1.67826E-001	-3.49761E-008	1.45115E-007	-1.80091E-007	-1.93000E-001	3.22706E-004	7	..........a	-327.68
	92	0.465	-1.35678E-001	-1.95951E-001	-1.65814E-001	-3.98434E-008	1.57517E-007	-1.97360E-007	-1.91000E-001	3.46039E-004	7	..........a	-327.68
	93	0.47	-1.33711E-001	-1.93958E-001	-1.63834E-001	-4.17103E-008	1.56517E-007	-1.98227E-007	-1.89000E-001	3.32706E-004	7	..........a	-327.68
	94	0.475	-1.31734E-001	-1.91931E-001	-1.61833E-001	-4.66443E-008	1.63984E-007	-2.10629E-007	-1.87000E-001	3.52706E-004	7	..........a	-327.68
	95	0.48	-1.29741E-001	-1.89938E-001	-1.59839E-001	-4.81112E-008	1.66585E-007	-2.14696E-007	-1.85000E-001	3.76039E-004	7	..........a	-327.68
	96	0.485	-1.27711E-001	-1.87924E-001	-1.57818E-001	-5.43120E-008	1.72252E-007	-2.26564E-007	-1.83000E-001	3.29373E-004	7	..........a	-327.68
	97	0.49	-1.25744E-001	-1.85934E-001	-1.55839E-001	-5.31785E-008	1.76119E-007	-2.29298E-007	-1.81000E-001	2.99373E-004	7	..........a	-327.68
	98	0.495	-1.23768E-001	-1.83908E-001	-1.53838E-001	-5.70457E-008	1.76053E-007	-2.33098E-007	-1.79000E-001	3.36039E-004	7	..........a	-327.68
	99	0.5	-1.21754E-001	-1.81921E-001	-1.51838E-001	-5.78458E-008	1.80787E-007	-2.38633E-007	-1.77000E-001	3.06039E-004	7	..........a	-327.68
	100	0.505	-1.19728E-001	-1.79921E-001	-1.49824E-001	-5.93794E-008	1.80920E-007	-2.40299E-007	-1.75000E-001	2.82706E-004	7	..........a	-327.68
